# r(A)  G(r)
0.000000 0.000000
0.010000 -0.012714
0.020000 -0.025489
0.030000 -0.038378
0.040000 -0.051420
0.050000 -0.064637
0.060000 -0.078029
0.070000 -0.091577
0.080000 -0.105240
0.090000 -0.118967
0.100000 -0.132696
0.110000 -0.146367
0.120000 -0.159925
0.130000 -0.173331
0.140000 -0.186561
0.150000 -0.199614
0.160000 -0.212510
0.170000 -0.225288
0.180000 -0.237999
0.190000 -0.250706
0.200000 -0.263469
0.210000 -0.276343
0.220000 -0.289371
0.230000 -0.302575
0.240000 -0.315959
0.250000 -0.329503
0.260000 -0.343169
0.270000 -0.356904
0.280000 -0.370647
0.290000 -0.384335
0.300000 -0.397912
0.310000 -0.411334
0.320000 -0.424578
0.330000 -0.437639
0.340000 -0.450535
0.350000 -0.463306
0.360000 -0.476004
0.370000 -0.488692
0.380000 -0.501433
0.390000 -0.514286
0.400000 -0.527295
0.410000 -0.540487
0.420000 -0.553866
0.430000 -0.567414
0.440000 -0.581093
0.450000 -0.594849
0.460000 -0.608618
0.470000 -0.622334
0.480000 -0.635938
0.490000 -0.649382
0.500000 -0.662639
0.510000 -0.675704
0.520000 -0.688594
0.530000 -0.701347
0.540000 -0.714019
0.550000 -0.726675
0.560000 -0.739384
0.570000 -0.752207
0.580000 -0.765194
0.590000 -0.778373
0.600000 -0.791752
0.610000 -0.805313
0.620000 -0.819018
0.630000 -0.832809
0.640000 -0.846618
0.650000 -0.860375
0.660000 -0.874015
0.670000 -0.887486
0.680000 -0.900758
0.690000 -0.913821
0.700000 -0.926694
0.710000 -0.939416
0.720000 -0.952047
0.730000 -0.964656
0.740000 -0.977319
0.750000 -0.990102
0.760000 -1.003060
0.770000 -1.016227
0.780000 -1.029613
0.790000 -1.043199
0.800000 -1.056945
0.810000 -1.070788
0.820000 -1.084656
0.830000 -1.098470
0.840000 -1.112159
0.850000 -1.125664
0.860000 -1.138949
0.870000 -1.152004
0.880000 -1.164847
0.890000 -1.177520
0.900000 -1.190089
0.910000 -1.202631
0.920000 -1.215228
0.930000 -1.227958
0.940000 -1.240881
0.950000 -1.254037
0.960000 -1.267438
0.970000 -1.281066
0.980000 -1.294875
0.990000 -1.308796
1.000000 -1.322747
1.010000 -1.336641
1.020000 -1.350393
1.030000 -1.363940
1.040000 -1.377237
1.050000 -1.390272
1.060000 -1.403065
1.070000 -1.415663
1.080000 -1.428140
1.090000 -1.440584
1.100000 -1.453091
1.110000 -1.465749
1.120000 -1.478630
1.130000 -1.491779
1.140000 -1.505212
1.150000 -1.518906
1.160000 -1.532811
1.170000 -1.546848
1.180000 -1.560918
1.190000 -1.574921
1.200000 -1.588759
1.210000 -1.602354
1.220000 -1.615656
1.230000 -1.628651
1.240000 -1.641360
1.250000 -1.653840
1.260000 -1.666179
1.270000 -1.678482
1.280000 -1.690863
1.290000 -1.703426
1.300000 -1.716257
1.310000 -1.729411
1.320000 -1.742904
1.330000 -1.756711
1.340000 -1.770768
1.350000 -1.784977
1.360000 -1.799222
1.370000 -1.813377
1.380000 -1.827326
1.390000 -1.840973
1.400000 -1.854260
1.410000 -1.867171
1.420000 -1.879734
1.430000 -1.892023
1.440000 -1.904148
1.450000 -1.916242
1.460000 -1.928445
1.470000 -1.940887
1.480000 -1.953674
1.490000 -1.966869
1.500000 -1.980489
1.510000 -1.994495
1.520000 -2.008802
1.530000 -2.023283
1.540000 -2.037786
1.550000 -2.052149
1.560000 -2.066226
1.570000 -2.079900
1.580000 -2.093101
1.590000 -2.105815
1.600000 -2.118088
1.610000 -2.130022
1.620000 -2.141759
1.630000 -2.153468
1.640000 -2.165319
1.650000 -2.177457
1.660000 -2.189976
1.670000 -2.202902
1.680000 -2.216171
1.690000 -2.229622
1.700000 -2.242989
1.710000 -2.255910
1.720000 -2.267926
1.730000 -2.278494
1.740000 -2.286987
1.750000 -2.292693
1.760000 -2.294806
1.770000 -2.292399
1.780000 -2.284391
1.790000 -2.269498
1.800000 -2.246174
1.810000 -2.212557
1.820000 -2.166409
1.830000 -2.105074
1.840000 -2.025459
1.850000 -1.924045
1.860000 -1.796938
1.870000 -1.639967
1.880000 -1.448834
1.890000 -1.219309
1.900000 -0.947470
1.910000 -0.629984
1.920000 -0.264400
1.930000 0.150546
1.940000 0.614645
1.950000 1.125966
1.960000 1.680666
1.970000 2.272872
1.980000 2.894666
1.990000 3.536164
2.000000 4.185715
2.010000 4.830201
2.020000 5.455439
2.030000 6.046668
2.040000 6.589096
2.050000 7.068479
2.060000 7.471710
2.070000 7.787375
2.080000 8.006252
2.090000 8.121721
2.100000 8.130066
2.110000 8.030643
2.120000 7.825911
2.130000 7.521322
2.140000 7.125074
2.150000 6.647749
2.160000 6.101846
2.170000 5.501244
2.180000 4.860624
2.190000 4.194877
2.200000 3.518538
2.210000 2.845268
2.220000 2.187406
2.230000 1.555626
2.240000 0.958685
2.250000 0.403294
2.260000 -0.105906
2.270000 -0.566270
2.280000 -0.976984
2.290000 -1.338830
2.300000 -1.653911
2.310000 -1.925339
2.320000 -2.156929
2.330000 -2.352897
2.340000 -2.517598
2.350000 -2.655298
2.360000 -2.770010
2.370000 -2.865365
2.380000 -2.944554
2.390000 -3.010301
2.400000 -3.064887
2.410000 -3.110198
2.420000 -3.147786
2.430000 -3.178946
2.440000 -3.204786
2.450000 -3.226281
2.460000 -3.244327
2.470000 -3.259755
2.480000 -3.273348
2.490000 -3.285822
2.500000 -3.297815
2.510000 -3.309850
2.520000 -3.322309
2.530000 -3.335410
2.540000 -3.349185
2.550000 -3.363480
2.560000 -3.377954
2.570000 -3.392101
2.580000 -3.405270
2.590000 -3.416689
2.600000 -3.425488
2.610000 -3.430706
2.620000 -3.431285
2.630000 -3.426046
2.640000 -3.413639
2.650000 -3.392469
2.660000 -3.360612
2.670000 -3.315713
2.680000 -3.254889
2.690000 -3.174639
2.700000 -3.070785
2.710000 -2.938452
2.720000 -2.772103
2.730000 -2.565636
2.740000 -2.312559
2.750000 -2.006238
2.760000 -1.640215
2.770000 -1.208594
2.780000 -0.706466
2.790000 -0.130365
2.800000 0.521276
2.810000 1.247711
2.820000 2.045516
2.830000 2.908325
2.840000 3.826684
2.850000 4.788050
2.860000 5.776945
2.870000 6.775275
2.880000 7.762807
2.890000 8.717797
2.900000 9.617732
2.910000 10.440166
2.920000 11.163601
2.930000 11.768370
2.940000 12.237474
2.950000 12.557326
2.960000 12.718362
2.970000 12.715479
2.980000 12.548278
2.990000 12.221088
3.000000 11.742783
3.010000 11.126389
3.020000 10.388508
3.030000 9.548593
3.040000 8.628116
3.050000 7.649666
3.060000 6.636046
3.070000 5.609396
3.080000 4.590408
3.090000 3.597647
3.100000 2.647041
3.110000 1.751514
3.120000 0.920819
3.130000 0.161521
3.140000 -0.522852
3.150000 -1.131528
3.160000 -1.666111
3.170000 -2.130125
3.180000 -2.528535
3.190000 -2.867259
3.200000 -3.152720
3.210000 -3.391440
3.220000 -3.589724
3.230000 -3.753408
3.240000 -3.887701
3.250000 -3.997102
3.260000 -4.085380
3.270000 -4.155607
3.280000 -4.210224
3.290000 -4.251119
3.300000 -4.279707
3.310000 -4.296992
3.320000 -4.303605
3.330000 -4.299820
3.340000 -4.285538
3.350000 -4.260261
3.360000 -4.223044
3.370000 -4.172466
3.380000 -4.106607
3.390000 -4.023060
3.400000 -3.918985
3.410000 -3.791209
3.420000 -3.636375
3.430000 -3.451143
3.440000 -3.232429
3.450000 -2.977671
3.460000 -2.685104
3.470000 -2.354033
3.480000 -1.985069
3.490000 -1.580325
3.500000 -1.143540
3.510000 -0.680126
3.520000 -0.197127
3.530000 0.296922
3.540000 0.792214
3.550000 1.277985
3.560000 1.742883
3.570000 2.175398
3.580000 2.564312
3.590000 2.899154
3.600000 3.170633
3.610000 3.371027
3.620000 3.494506
3.630000 3.537372
3.640000 3.498208
3.650000 3.377917
3.660000 3.179674
3.670000 2.908763
3.680000 2.572347
3.690000 2.179145
3.700000 1.739073
3.710000 1.262834
3.720000 0.761503
3.730000 0.246117
3.740000 -0.272710
3.750000 -0.785131
3.760000 -1.282352
3.770000 -1.756849
3.780000 -2.202518
3.790000 -2.614742
3.800000 -2.990395
3.810000 -3.327768
3.820000 -3.626448
3.830000 -3.887135
3.840000 -4.111434
3.850000 -4.301620
3.860000 -4.460396
3.870000 -4.590651
3.880000 -4.695239
3.890000 -4.776780
3.900000 -4.837499
3.910000 -4.879102
3.920000 -4.902698
3.930000 -4.908768
3.940000 -4.897179
3.950000 -4.867241
3.960000 -4.817800
3.970000 -4.747369
3.980000 -4.654279
3.990000 -4.536853
4.000000 -4.393586
4.010000 -4.223326
4.020000 -4.025451
4.030000 -3.800020
4.040000 -3.547912
4.050000 -3.270922
4.060000 -2.971826
4.070000 -2.654401
4.080000 -2.323397
4.090000 -1.984469
4.100000 -1.644051
4.110000 -1.309197
4.120000 -0.987371
4.130000 -0.686217
4.140000 -0.413293
4.150000 -0.175797
4.160000 0.019704
4.170000 0.167545
4.180000 0.263196
4.190000 0.303465
4.200000 0.286657
4.210000 0.212659
4.220000 0.082979
4.230000 -0.099300
4.240000 -0.329624
4.250000 -0.602141
4.260000 -0.909929
4.270000 -1.245265
4.280000 -1.599933
4.290000 -1.965527
4.300000 -2.333763
4.310000 -2.696755
4.320000 -3.047249
4.330000 -3.378800
4.340000 -3.685876
4.350000 -3.963887
4.360000 -4.209134
4.370000 -4.418685
4.380000 -4.590188
4.390000 -4.721640
4.400000 -4.811128
4.410000 -4.856564
4.420000 -4.855453
4.430000 -4.804703
4.440000 -4.700509
4.450000 -4.538330
4.460000 -4.312972
4.470000 -4.018778
4.480000 -3.649932
4.490000 -3.200862
4.500000 -2.666717
4.510000 -2.043905
4.520000 -1.330642
4.530000 -0.527493
4.540000 0.362158
4.550000 1.331722
4.560000 2.371157
4.570000 3.466886
4.580000 4.601891
4.590000 5.756007
4.600000 6.906408
4.610000 8.028270
4.620000 9.095593
4.630000 10.082140
4.640000 10.962448
4.650000 11.712859
4.660000 12.312519
4.670000 12.744288
4.680000 12.995500
4.690000 13.058550
4.700000 12.931248
4.710000 12.616939
4.720000 12.124371
4.730000 11.467323
4.740000 10.664008
4.750000 9.736305
4.760000 8.708841
4.770000 7.608001
4.780000 6.460910
4.790000 5.294451
4.800000 4.134374
4.810000 3.004538
4.820000 1.926330
4.830000 0.918272
4.840000 -0.004169
4.850000 -0.828584
4.860000 -1.545445
4.870000 -2.147809
4.880000 -2.630919
4.890000 -2.991771
4.900000 -3.228690
4.910000 -3.340956
4.920000 -3.328536
4.930000 -3.191933
4.940000 -2.932178
4.950000 -2.550969
4.960000 -2.050928
4.970000 -1.435964
4.980000 -0.711698
4.990000 0.114108
5.000000 1.031155
5.010000 2.026306
5.020000 3.083422
5.030000 4.183377
5.040000 5.304268
5.050000 6.421841
5.060000 7.510117
5.070000 8.542194
5.080000 9.491189
5.090000 10.331271
5.100000 11.038713
5.110000 11.592911
5.120000 11.977295
5.130000 12.180078
5.140000 12.194794
5.150000 12.020587
5.160000 11.662234
5.170000 11.129898
5.180000 10.438627
5.190000 9.607633
5.200000 8.659399
5.210000 7.618661
5.220000 6.511335
5.230000 5.363449
5.240000 4.200136
5.250000 3.044753
5.260000 1.918142
5.270000 0.838093
5.280000 -0.181004
5.290000 -1.128297
5.300000 -1.996434
5.310000 -2.781350
5.320000 -3.481933
5.330000 -4.099591
5.340000 -4.637770
5.350000 -5.101450
5.360000 -5.496665
5.370000 -5.830066
5.380000 -6.108538
5.390000 -6.338910
5.400000 -6.527720
5.410000 -6.681072
5.420000 -6.804548
5.430000 -6.903171
5.440000 -6.981404
5.450000 -7.043178
5.460000 -7.091923
5.470000 -7.130598
5.480000 -7.161728
5.490000 -7.187417
5.500000 -7.209370
5.510000 -7.228899
5.520000 -7.246939
5.530000 -7.264062
5.540000 -7.280508
5.550000 -7.296215
5.560000 -7.310868
5.570000 -7.323951
5.580000 -7.334797
5.590000 -7.342640
5.600000 -7.346647
5.610000 -7.345942
5.620000 -7.339599
5.630000 -7.326622
5.640000 -7.305896
5.650000 -7.276128
5.660000 -7.235780
5.670000 -7.183008
5.680000 -7.115615
5.690000 -7.031039
5.700000 -6.926377
5.710000 -6.798458
5.720000 -6.643973
5.730000 -6.459653
5.740000 -6.242490
5.750000 -5.989997
5.760000 -5.700474
5.770000 -5.373282
5.780000 -5.009082
5.790000 -4.610028
5.800000 -4.179896
5.810000 -3.724130
5.820000 -3.249786
5.830000 -2.765391
5.840000 -2.280697
5.850000 -1.806353
5.860000 -1.353513
5.870000 -0.933389
5.880000 -0.556782
5.890000 -0.233620
5.900000 0.027484
5.910000 0.219624
5.920000 0.337919
5.930000 0.379754
5.940000 0.344932
5.950000 0.235736
5.960000 0.056894
5.970000 -0.184528
5.980000 -0.479308
5.990000 -0.816311
6.000000 -1.182773
6.010000 -1.564629
6.020000 -1.946858
6.030000 -2.313854
6.040000 -2.649809
6.050000 -2.939106
6.060000 -3.166723
6.070000 -3.318640
6.080000 -3.382263
6.090000 -3.346831
6.100000 -3.203829
6.110000 -2.947372
6.120000 -2.574562
6.130000 -2.085786
6.140000 -1.484945
6.150000 -0.779582
6.160000 0.019092
6.170000 0.896313
6.180000 1.834019
6.190000 2.811252
6.200000 3.804700
6.210000 4.789386
6.220000 5.739452
6.230000 6.629043
6.240000 7.433231
6.250000 8.128951
6.260000 8.695900
6.270000 9.117359
6.280000 9.380895
6.290000 9.478906
6.300000 9.408985
6.310000 9.174080
6.320000 8.782441
6.330000 8.247361
6.340000 7.586713
6.350000 6.822316
6.360000 5.979151
6.370000 5.084465
6.380000 4.166808
6.390000 3.255028
6.400000 2.377287
6.410000 1.560109
6.420000 0.827523
6.430000 0.200301
6.440000 -0.304668
6.450000 -0.674860
6.460000 -0.902442
6.470000 -0.984435
6.480000 -0.922725
6.490000 -0.723916
6.500000 -0.399037
6.510000 0.036879
6.520000 0.565333
6.530000 1.165002
6.540000 1.812462
6.550000 2.482966
6.560000 3.151268
6.570000 3.792461
6.580000 4.382803
6.590000 4.900513
6.600000 5.326505
6.610000 5.645034
6.620000 5.844244
6.630000 5.916579
6.640000 5.859047
6.650000 5.673328
6.660000 5.365718
6.670000 4.946893
6.680000 4.431525
6.690000 3.837735
6.700000 3.186419
6.710000 2.500468
6.720000 1.803904
6.730000 1.120978
6.740000 0.475255
6.750000 -0.111273
6.760000 -0.619011
6.770000 -1.031487
6.780000 -1.335962
6.790000 -1.523879
6.800000 -1.591163
6.810000 -1.538332
6.820000 -1.370444
6.830000 -1.096857
6.840000 -0.730841
6.850000 -0.289030
6.860000 0.209230
6.870000 0.742643
6.880000 1.288782
6.890000 1.824936
6.900000 2.328960
6.910000 2.780090
6.920000 3.159691
6.930000 3.451907
6.940000 3.644203
6.950000 3.727759
6.960000 3.697722
6.970000 3.553297
6.980000 3.297675
6.990000 2.937813
7.000000 2.484072
7.010000 1.949721
7.020000 1.350355
7.030000 0.703222
7.040000 0.026513
7.050000 -0.661368
7.060000 -1.342512
7.070000 -2.000171
7.080000 -2.619352
7.090000 -3.187314
7.100000 -3.693945
7.110000 -4.132021
7.120000 -4.497324
7.130000 -4.788633
7.140000 -5.007583
7.150000 -5.158415
7.160000 -5.247620
7.170000 -5.283509
7.180000 -5.275729
7.190000 -5.234738
7.200000 -5.171281
7.210000 -5.095872
7.220000 -5.018316
7.230000 -4.947278
7.240000 -4.889923
7.250000 -4.851626
7.260000 -4.835780
7.270000 -4.843679
7.280000 -4.874495
7.290000 -4.925347
7.300000 -4.991450
7.310000 -5.066337
7.320000 -5.142155
7.330000 -5.210018
7.340000 -5.260407
7.350000 -5.283603
7.360000 -5.270147
7.370000 -5.211300
7.380000 -5.099496
7.390000 -4.928768
7.400000 -4.695126
7.410000 -4.396873
7.420000 -4.034839
7.430000 -3.612523
7.440000 -3.136110
7.450000 -2.614386
7.460000 -2.058502
7.470000 -1.481632
7.480000 -0.898489
7.490000 -0.324742
7.500000 0.223662
7.510000 0.731245
7.520000 1.183773
7.530000 1.569033
7.540000 1.877562
7.550000 2.103298
7.560000 2.244099
7.570000 2.302104
7.580000 2.283904
7.590000 2.200492
7.600000 2.066988
7.610000 1.902131
7.620000 1.727557
7.630000 1.566876
7.640000 1.444602
7.650000 1.384960
7.660000 1.410645
7.670000 1.541588
7.680000 1.793795
7.690000 2.178324
7.700000 2.700454
7.710000 3.359111
7.720000 4.146577
7.730000 5.048513
7.740000 6.044313
7.750000 7.107765
7.760000 8.208011
7.770000 9.310747
7.780000 10.379623
7.790000 11.377758
7.800000 12.269307
7.810000 13.020996
7.820000 13.603540
7.830000 13.992880
7.840000 14.171180
7.850000 14.127516
7.860000 13.858245
7.870000 13.367035
7.880000 12.664551
7.890000 11.767838
7.900000 10.699428
7.910000 9.486235
7.920000 8.158297
7.930000 6.747444
7.940000 5.285960
7.950000 3.805307
7.960000 2.334981
7.970000 0.901544
7.980000 -0.472119
7.990000 -1.767314
8.000000 -2.969792
8.010000 -4.069769
8.020000 -5.061733
8.030000 -5.944056
8.040000 -6.718480
8.050000 -7.389489
8.060000 -7.963650
8.070000 -8.448942
8.080000 -8.854121
8.090000 -9.188168
8.100000 -9.459812
8.110000 -9.677182
8.120000 -9.847552
8.130000 -9.977209
8.140000 -10.071411
8.150000 -10.134428
8.160000 -10.169644
8.170000 -10.179699
8.180000 -10.166653
8.190000 -10.132157
8.200000 -10.077606
8.210000 -10.004283
8.220000 -9.913467
8.230000 -9.806519
8.240000 -9.684938
8.250000 -9.550388
8.260000 -9.404703
8.270000 -9.249867
8.280000 -9.087974
8.290000 -8.921167
8.300000 -8.751558
8.310000 -8.581116
8.320000 -8.411550
8.330000 -8.244149
8.340000 -8.079626
8.350000 -7.917929
8.360000 -7.758070
8.370000 -7.597948
8.380000 -7.434214
8.390000 -7.262178
8.400000 -7.075784
8.410000 -6.867675
8.420000 -6.629351
8.430000 -6.351449
8.440000 -6.024128
8.450000 -5.637562
8.460000 -5.182528
8.470000 -4.651053
8.480000 -4.037087
8.490000 -3.337165
8.500000 -2.551007
8.510000 -1.682002
8.520000 -0.737536
8.530000 0.270875
8.540000 1.327688
8.550000 2.413675
8.560000 3.506514
8.570000 4.581613
8.580000 5.613131
8.590000 6.575139
8.600000 7.442886
8.610000 8.194053
8.620000 8.809967
8.630000 9.276655
8.640000 9.585693
8.650000 9.734779
8.660000 9.727982
8.670000 9.575647
8.680000 9.293948
8.690000 8.904107
8.700000 8.431319
8.710000 7.903446
8.720000 7.349543
8.730000 6.798331
8.740000 6.276670
8.750000 5.808156
8.760000 5.411918
8.770000 5.101673
8.780000 4.885120
8.790000 4.763681
8.800000 4.732624
8.810000 4.781537
8.820000 4.895132
8.830000 5.054316
8.840000 5.237468
8.850000 5.421821
8.860000 5.584891
8.870000 5.705836
8.880000 5.766676
8.890000 5.753311
8.900000 5.656260
8.910000 5.471105
8.920000 5.198601
8.930000 4.844479
8.940000 4.418940
8.950000 3.935898
8.960000 3.412024
8.970000 2.865653
8.980000 2.315632
8.990000 1.780175
9.000000 1.275814
9.010000 0.816481
9.020000 0.412804
9.030000 0.071631
9.040000 -0.204186
9.050000 -0.415736
9.060000 -0.567756
9.070000 -0.668101
9.080000 -0.727043
9.090000 -0.756432
9.100000 -0.768786
9.110000 -0.776377
9.120000 -0.790364
9.130000 -0.820034
9.140000 -0.872198
9.150000 -0.950784
9.160000 -1.056643
9.170000 -1.187581
9.180000 -1.338612
9.190000 -1.502402
9.200000 -1.669885
9.210000 -1.830984
9.220000 -1.975408
9.230000 -2.093444
9.240000 -2.176705
9.250000 -2.218764
9.260000 -2.215642
9.270000 -2.166098
9.280000 -2.071713
9.290000 -1.936753
9.300000 -1.767818
9.310000 -1.573312
9.320000 -1.362753
9.330000 -1.146003
9.340000 -0.932441
9.350000 -0.730176
9.360000 -0.545331
9.370000 -0.381488
9.380000 -0.239307
9.390000 -0.116382
9.400000 -0.007336
9.410000 0.095838
9.420000 0.203208
9.430000 0.326148
9.440000 0.476434
9.450000 0.665271
9.460000 0.902309
9.470000 1.194724
9.480000 1.546441
9.490000 1.957541
9.500000 2.423934
9.510000 2.937293
9.520000 3.485293
9.530000 4.052123
9.540000 4.619261
9.550000 5.166453
9.560000 5.672835
9.570000 6.118124
9.580000 6.483808
9.590000 6.754232
9.600000 6.917529
9.610000 6.966324
9.620000 6.898153
9.630000 6.715585
9.640000 6.426036
9.650000 6.041276
9.660000 5.576680
9.670000 5.050272
9.680000 4.481614
9.690000 3.890643
9.700000 3.296500
9.710000 2.716461
9.720000 2.165012
9.730000 1.653143
9.740000 1.187882
9.750000 0.772116
9.760000 0.404670
9.770000 0.080661
9.780000 -0.207942
9.790000 -0.471570
9.800000 -0.722195
9.810000 -0.972414
9.820000 -1.234544
9.830000 -1.519791
9.840000 -1.837530
9.850000 -2.194761
9.860000 -2.595737
9.870000 -3.041808
9.880000 -3.531443
9.890000 -4.060444
9.900000 -4.622302
9.910000 -5.208665
9.920000 -5.809880
9.930000 -6.415549
9.940000 -7.015081
9.950000 -7.598185
9.960000 -8.155272
9.970000 -8.677766
9.980000 -9.158302
9.990000 -9.590803
10.000000 -9.970469
10.010000 -10.293680
10.020000 -10.557843
10.030000 -10.761206
10.040000 -10.902678
10.050000 -10.981663
10.060000 -10.997945
10.070000 -10.951632
10.080000 -10.843157
10.090000 -10.673358
10.100000 -10.443592
10.110000 -10.155911
10.120000 -9.813233
10.130000 -9.419518
10.140000 -8.979905
10.150000 -8.500789
10.160000 -7.989826
10.170000 -7.455830
10.180000 -6.908588
10.190000 -6.358564
10.200000 -5.816521
10.210000 -5.293080
10.220000 -4.798231
10.230000 -4.340845
10.240000 -3.928214
10.250000 -3.565651
10.260000 -3.256189
10.270000 -3.000408
10.280000 -2.796401
10.290000 -2.639891
10.300000 -2.524494
10.310000 -2.442123
10.320000 -2.383483
10.330000 -2.338654
10.340000 -2.297684
10.350000 -2.251172
10.360000 -2.190790
10.370000 -2.109684
10.380000 -2.002748
10.390000 -1.866728
10.400000 -1.700148
10.410000 -1.503084
10.420000 -1.276779
10.430000 -1.023156
10.440000 -0.744274
10.450000 -0.441765
10.460000 -0.116339
10.470000 0.232618
10.480000 0.607276
10.490000 1.011412
10.500000 1.450230
10.510000 1.929985
10.520000 2.457389
10.530000 3.038875
10.540000 3.679747
10.550000 4.383301
10.560000 5.149990
10.570000 5.976707
10.580000 6.856269
10.590000 7.777158
10.600000 8.723562
10.610000 9.675741
10.620000 10.610711
10.630000 11.503215
10.640000 12.326928
