# r(A)  G(r)
0.000000 0.000000
0.010000 -0.003613
0.020000 -0.007443
0.030000 -0.011680
0.040000 -0.016466
0.050000 -0.021875
0.060000 -0.027906
0.070000 -0.034482
0.080000 -0.041461
0.090000 -0.048651
0.100000 -0.055835
0.110000 -0.062796
0.120000 -0.069344
0.130000 -0.075341
0.140000 -0.080714
0.150000 -0.085466
0.160000 -0.089676
0.170000 -0.093488
0.180000 -0.097096
0.190000 -0.100716
0.200000 -0.104565
0.210000 -0.108831
0.220000 -0.113652
0.230000 -0.119099
0.240000 -0.125165
0.250000 -0.131770
0.260000 -0.138768
0.270000 -0.145965
0.280000 -0.153143
0.290000 -0.160086
0.300000 -0.166608
0.310000 -0.172572
0.320000 -0.177910
0.330000 -0.182629
0.340000 -0.186813
0.350000 -0.190609
0.360000 -0.194213
0.370000 -0.197841
0.380000 -0.201711
0.390000 -0.206007
0.400000 -0.210865
0.410000 -0.216350
0.420000 -0.222452
0.430000 -0.229086
0.440000 -0.236104
0.450000 -0.243309
0.460000 -0.250483
0.470000 -0.257410
0.480000 -0.263905
0.490000 -0.269837
0.500000 -0.275141
0.510000 -0.279830
0.520000 -0.283989
0.530000 -0.287770
0.540000 -0.291371
0.550000 -0.295010
0.560000 -0.298901
0.570000 -0.303229
0.580000 -0.308124
0.590000 -0.313648
0.600000 -0.319787
0.610000 -0.326453
0.620000 -0.333491
0.630000 -0.340705
0.640000 -0.347875
0.650000 -0.354787
0.660000 -0.361258
0.670000 -0.367159
0.680000 -0.372431
0.690000 -0.377089
0.700000 -0.381224
0.710000 -0.384992
0.720000 -0.388591
0.730000 -0.392241
0.740000 -0.396155
0.750000 -0.400515
0.760000 -0.405449
0.770000 -0.411014
0.780000 -0.417191
0.790000 -0.423888
0.800000 -0.430949
0.810000 -0.438173
0.820000 -0.445341
0.830000 -0.452238
0.840000 -0.458686
0.850000 -0.464558
0.860000 -0.469798
0.870000 -0.474427
0.880000 -0.478540
0.890000 -0.482294
0.900000 -0.485892
0.910000 -0.489554
0.920000 -0.493491
0.930000 -0.497884
0.940000 -0.502857
0.950000 -0.508464
0.960000 -0.514681
0.970000 -0.521411
0.980000 -0.528496
0.990000 -0.535732
1.000000 -0.542899
1.010000 -0.549785
1.020000 -0.556211
1.030000 -0.562054
1.040000 -0.567263
1.050000 -0.571863
1.060000 -0.575954
1.070000 -0.579695
1.080000 -0.583292
1.090000 -0.586965
1.100000 -0.590926
1.110000 -0.595352
1.120000 -0.600365
1.130000 -0.606015
1.140000 -0.612273
1.150000 -0.619039
1.160000 -0.626150
1.170000 -0.633401
1.180000 -0.640571
1.190000 -0.647446
1.200000 -0.653852
1.210000 -0.659668
1.220000 -0.664847
1.230000 -0.669418
1.240000 -0.673485
1.250000 -0.677212
1.260000 -0.680806
1.270000 -0.684489
1.280000 -0.688472
1.290000 -0.692932
1.300000 -0.697987
1.310000 -0.703681
1.320000 -0.709984
1.330000 -0.716789
1.340000 -0.723930
1.350000 -0.731200
1.360000 -0.738375
1.370000 -0.745244
1.380000 -0.751631
1.390000 -0.757420
1.400000 -0.762568
1.410000 -0.767108
1.420000 -0.771148
1.430000 -0.774858
1.440000 -0.778446
1.450000 -0.782137
1.460000 -0.786141
1.470000 -0.790635
1.480000 -0.795732
1.490000 -0.801474
1.500000 -0.807826
1.510000 -0.814676
1.520000 -0.821854
1.530000 -0.829148
1.540000 -0.836334
1.550000 -0.843199
1.560000 -0.849570
1.570000 -0.855332
1.580000 -0.860446
1.590000 -0.864950
1.600000 -0.868959
1.610000 -0.872645
1.620000 -0.876221
1.630000 -0.879914
1.640000 -0.883937
1.650000 -0.888464
1.660000 -0.893607
1.670000 -0.899403
1.680000 -0.905811
1.690000 -0.912716
1.700000 -0.919940
1.710000 -0.927269
1.720000 -0.934473
1.730000 -0.941339
1.740000 -0.947694
1.750000 -0.953426
1.760000 -0.958499
1.770000 -0.962959
1.780000 -0.966924
1.790000 -0.970574
1.800000 -0.974128
1.810000 -0.977817
1.820000 -0.981856
1.830000 -0.986417
1.840000 -0.991612
1.850000 -0.997473
1.860000 -1.003953
1.870000 -1.010928
1.880000 -1.018216
1.890000 -1.025593
1.900000 -1.032826
1.910000 -1.039697
1.920000 -1.046034
1.930000 -1.051727
1.940000 -1.056745
1.950000 -1.061141
1.960000 -1.065041
1.970000 -1.068636
1.980000 -1.072151
1.990000 -1.075824
2.000000 -1.079876
2.010000 -1.084479
2.020000 -1.089741
2.030000 -1.095690
2.040000 -1.102270
2.050000 -1.109347
2.060000 -1.116725
2.070000 -1.124172
2.080000 -1.131445
2.090000 -1.138323
2.100000 -1.144629
2.110000 -1.150259
2.120000 -1.155189
2.130000 -1.159482
2.140000 -1.163279
2.150000 -1.166783
2.160000 -1.170234
2.170000 -1.173883
2.180000 -1.177954
2.190000 -1.182623
2.200000 -1.187993
2.210000 -1.194082
2.220000 -1.200817
2.230000 -1.208049
2.240000 -1.215561
2.250000 -1.223104
2.260000 -1.230421
2.270000 -1.237282
2.280000 -1.243508
2.290000 -1.249002
2.300000 -1.253752
2.310000 -1.257838
2.320000 -1.261420
2.330000 -1.264720
2.340000 -1.267987
2.350000 -1.271469
2.360000 -1.275373
2.370000 -1.279833
2.380000 -1.284885
2.390000 -1.290445
2.400000 -1.296304
2.410000 -1.302129
2.420000 -1.307472
2.430000 -1.311788
2.440000 -1.314449
2.450000 -1.314758
2.460000 -1.311958
2.470000 -1.305226
2.480000 -1.293654
2.490000 -1.276220
2.500000 -1.251746
2.510000 -1.218848
2.520000 -1.175890
2.530000 -1.120941
2.540000 -1.051748
2.550000 -0.965738
2.560000 -0.860052
2.570000 -0.731613
2.580000 -0.577243
2.590000 -0.393814
2.600000 -0.178444
2.610000 0.071287
2.620000 0.357097
2.630000 0.679766
2.640000 1.038911
2.650000 1.432798
2.660000 1.858200
2.670000 2.310328
2.680000 2.782830
2.690000 3.267887
2.700000 3.756380
2.710000 4.238159
2.720000 4.702369
2.730000 5.137848
2.740000 5.533555
2.750000 5.879023
2.760000 6.164793
2.770000 6.382832
2.780000 6.526875
2.790000 6.592710
2.800000 6.578361
2.810000 6.484166
2.820000 6.312760
2.830000 6.068943
2.840000 5.759456
2.850000 5.392679
2.860000 4.978259
2.870000 4.526698
2.880000 4.048925
2.890000 3.555864
2.900000 3.058038
2.910000 2.565208
2.920000 2.086085
2.930000 1.628096
2.940000 1.197250
2.950000 0.798059
2.960000 0.433556
2.970000 0.105363
2.980000 -0.186176
2.990000 -0.441821
3.000000 -0.663236
3.010000 -0.852772
3.020000 -1.013257
3.030000 -1.147791
3.040000 -1.259568
3.050000 -1.351728
3.060000 -1.427236
3.070000 -1.488806
3.080000 -1.538844
3.090000 -1.579436
3.100000 -1.612344
3.110000 -1.639037
3.120000 -1.660719
3.130000 -1.678371
3.140000 -1.692796
3.150000 -1.704653
3.160000 -1.714495
3.170000 -1.722787
3.180000 -1.729928
3.190000 -1.736261
3.200000 -1.742074
3.210000 -1.747606
3.220000 -1.753041
3.230000 -1.758514
3.240000 -1.764106
3.250000 -1.769854
3.260000 -1.775751
3.270000 -1.781764
3.280000 -1.787837
3.290000 -1.793908
3.300000 -1.799916
3.310000 -1.805816
3.320000 -1.811575
3.330000 -1.817187
3.340000 -1.822661
3.350000 -1.828028
3.360000 -1.833327
3.370000 -1.838601
3.380000 -1.843891
3.390000 -1.849229
3.400000 -1.854633
3.410000 -1.860107
3.420000 -1.865640
3.430000 -1.871211
3.440000 -1.876793
3.450000 -1.882359
3.460000 -1.887884
3.470000 -1.893355
3.480000 -1.898767
3.490000 -1.904120
3.500000 -1.909421
3.510000 -1.914667
3.520000 -1.919842
3.530000 -1.924901
3.540000 -1.929756
3.550000 -1.934265
3.560000 -1.938218
3.570000 -1.941322
3.580000 -1.943187
3.590000 -1.943309
3.600000 -1.941054
3.610000 -1.935628
3.620000 -1.926053
3.630000 -1.911123
3.640000 -1.889365
3.650000 -1.858993
3.660000 -1.817855
3.670000 -1.763389
3.680000 -1.692594
3.690000 -1.602011
3.700000 -1.487737
3.710000 -1.345470
3.720000 -1.170604
3.730000 -0.958362
3.740000 -0.703990
3.750000 -0.402986
3.760000 -0.051384
3.770000 0.353941
3.780000 0.814943
3.790000 1.332083
3.800000 1.904035
3.810000 2.527429
3.820000 3.196678
3.830000 3.903889
3.840000 4.638884
3.850000 5.389351
3.860000 6.141105
3.870000 6.878490
3.880000 7.584869
3.890000 8.243225
3.900000 8.836810
3.910000 9.349825
3.920000 9.768096
3.930000 10.079698
3.940000 10.275500
3.950000 10.349589
3.960000 10.299552
3.970000 10.126600
3.980000 9.835516
3.990000 9.434442
4.000000 8.934507
4.010000 8.349324
4.020000 7.694386
4.030000 6.986394
4.040000 6.242555
4.050000 5.479898
4.060000 4.714634
4.070000 3.961602
4.080000 3.233822
4.090000 2.542166
4.100000 1.895176
4.110000 1.298999
4.120000 0.757457
4.130000 0.272213
4.140000 -0.156969
4.150000 -0.531912
4.160000 -0.855681
4.170000 -1.132229
4.180000 -1.366059
4.190000 -1.561927
4.200000 -1.724582
4.210000 -1.858579
4.220000 -1.968131
4.230000 -2.057037
4.240000 -2.128638
4.250000 -2.185835
4.260000 -2.231114
4.270000 -2.266601
4.280000 -2.294119
4.290000 -2.315244
4.300000 -2.331345
4.310000 -2.343626
4.320000 -2.353137
4.330000 -2.360787
4.340000 -2.367343
4.350000 -2.373422
4.360000 -2.379486
4.370000 -2.385837
4.380000 -2.392627
4.390000 -2.399862
4.400000 -2.407431
4.410000 -2.415129
4.420000 -2.422688
4.430000 -2.429817
4.440000 -2.436225
4.450000 -2.441651
4.460000 -2.445874
4.470000 -2.448717
4.480000 -2.450031
4.490000 -2.449678
4.500000 -2.447484
4.510000 -2.443199
4.520000 -2.436449
4.530000 -2.426675
4.540000 -2.413094
4.550000 -2.394657
4.560000 -2.370022
4.570000 -2.337547
4.580000 -2.295301
4.590000 -2.241095
4.600000 -2.172539
4.610000 -2.087122
4.620000 -1.982308
4.630000 -1.855656
4.640000 -1.704955
4.650000 -1.528362
4.660000 -1.324558
4.670000 -1.092884
4.680000 -0.833483
4.690000 -0.547415
4.700000 -0.236746
4.710000 0.095393
4.720000 0.444793
4.730000 0.806201
4.740000 1.173403
4.750000 1.539360
4.760000 1.896401
4.770000 2.236455
4.780000 2.551325
4.790000 2.832993
4.800000 3.073932
4.810000 3.267421
4.820000 3.407838
4.830000 3.490917
4.840000 3.513955
4.850000 3.475949
4.860000 3.377662
4.870000 3.221605
4.880000 3.011936
4.890000 2.754285
4.900000 2.455509
4.910000 2.123390
4.920000 1.766301
4.930000 1.392852
4.940000 1.011540
4.950000 0.630420
4.960000 0.256823
4.970000 -0.102877
4.980000 -0.443428
4.990000 -0.760789
5.000000 -1.052157
5.010000 -1.315922
5.020000 -1.551561
5.030000 -1.759499
5.040000 -1.940926
5.050000 -2.097608
5.060000 -2.231694
5.070000 -2.345540
5.080000 -2.441548
5.090000 -2.522045
5.100000 -2.589194
5.110000 -2.644937
5.120000 -2.690971
5.130000 -2.728753
5.140000 -2.759524
5.150000 -2.784339
5.160000 -2.804112
5.170000 -2.819645
5.180000 -2.831659
5.190000 -2.840810
5.200000 -2.847692
5.210000 -2.852827
5.220000 -2.856650
5.230000 -2.859478
5.240000 -2.861489
5.250000 -2.862688
5.260000 -2.862890
5.270000 -2.861699
5.280000 -2.858507
5.290000 -2.852492
5.300000 -2.842633
5.310000 -2.827725
5.320000 -2.806411
5.330000 -2.777208
5.340000 -2.738548
5.350000 -2.688817
5.360000 -2.626403
5.370000 -2.549743
5.380000 -2.457384
5.390000 -2.348045
5.400000 -2.220691
5.410000 -2.074609
5.420000 -1.909492
5.430000 -1.725528
5.440000 -1.523474
5.450000 -1.304738
5.460000 -1.071425
5.470000 -0.826379
5.480000 -0.573173
5.490000 -0.316082
5.500000 -0.059996
5.510000 0.189693
5.520000 0.427255
5.530000 0.646825
5.540000 0.842617
5.550000 1.009175
5.560000 1.141614
5.570000 1.235846
5.580000 1.288792
5.590000 1.298538
5.600000 1.264449
5.610000 1.187214
5.620000 1.068827
5.630000 0.912503
5.640000 0.722531
5.650000 0.504073
5.660000 0.262925
5.670000 0.005253
5.680000 -0.262685
5.690000 -0.534798
5.700000 -0.805403
5.710000 -1.069429
5.720000 -1.322568
5.730000 -1.561372
5.740000 -1.783295
5.750000 -1.986682
5.760000 -2.170704
5.770000 -2.335258
5.780000 -2.480841
5.790000 -2.608402
5.800000 -2.719200
5.810000 -2.814661
5.820000 -2.896257
5.830000 -2.965410
5.840000 -3.023411
5.850000 -3.071379
5.860000 -3.110231
5.870000 -3.140675
5.880000 -3.163204
5.890000 -3.178106
5.900000 -3.185452
5.910000 -3.185083
5.920000 -3.176579
5.930000 -3.159205
5.940000 -3.131857
5.950000 -3.092978
5.960000 -3.040492
5.970000 -2.971733
5.980000 -2.883402
5.990000 -2.771557
6.000000 -2.631639
6.010000 -2.458562
6.020000 -2.246860
6.030000 -1.990891
6.040000 -1.685106
6.050000 -1.324372
6.060000 -0.904333
6.070000 -0.421789
6.080000 0.124914
6.090000 0.735529
6.100000 1.407589
6.110000 2.136172
6.120000 2.913759
6.130000 3.730208
6.140000 4.572858
6.150000 5.426771
6.160000 6.275110
6.170000 7.099638
6.180000 7.881329
6.190000 8.601060
6.200000 9.240346
6.210000 9.782098
6.220000 10.211340
6.230000 10.515865
6.240000 10.686783
6.250000 10.718931
6.260000 10.611119
6.270000 10.366193
6.280000 9.990923
6.290000 9.495702
6.300000 8.894084
6.310000 8.202193
6.320000 7.438020
6.330000 6.620664
6.340000 5.769551
6.350000 4.903681
6.360000 4.040933
6.370000 3.197477
6.380000 2.387305
6.390000 1.621910
6.400000 0.910113
6.410000 0.258047
6.420000 -0.330738
6.430000 -0.855034
6.440000 -1.315657
6.450000 -1.715060
6.460000 -2.056912
6.470000 -2.345679
6.480000 -2.586217
6.490000 -2.783414
6.500000 -2.941877
6.510000 -3.065690
6.520000 -3.158224
6.530000 -3.222019
6.540000 -3.258707
6.550000 -3.268986
6.560000 -3.252631
6.570000 -3.208528
6.580000 -3.134731
6.590000 -3.028548
6.600000 -2.886641
6.610000 -2.705158
6.620000 -2.479895
6.630000 -2.206491
6.640000 -1.880677
6.650000 -1.498549
6.660000 -1.056893
6.670000 -0.553534
6.680000 0.012307
6.690000 0.639657
6.700000 1.325469
6.710000 2.064365
6.720000 2.848462
6.730000 3.667315
6.740000 4.507987
6.750000 5.355278
6.760000 6.192092
6.770000 6.999954
6.780000 7.759645
6.790000 8.451941
6.800000 9.058397
6.810000 9.562156
6.820000 9.948709
6.830000 10.206585
6.840000 10.327903
6.850000 10.308765
6.860000 10.149457
6.870000 9.854446
6.880000 9.432169
6.890000 8.894635
6.900000 8.256853
6.910000 7.536139
6.920000 6.751329
6.930000 5.921961
6.940000 5.067463
6.950000 4.206404
6.960000 3.355843
6.970000 2.530800
6.980000 1.743885
6.990000 1.005078
7.000000 0.321666
7.010000 -0.301676
7.020000 -0.862690
7.030000 -1.361237
7.040000 -1.798952
7.050000 -2.178853
7.060000 -2.504964
7.070000 -2.781948
7.080000 -3.014795
7.090000 -3.208559
7.100000 -3.368160
7.110000 -3.498244
7.120000 -3.603102
7.130000 -3.686631
7.140000 -3.752332
7.150000 -3.803327
7.160000 -3.842390
7.170000 -3.871972
7.180000 -3.894232
7.190000 -3.911049
7.200000 -3.924030
7.210000 -3.934512
7.220000 -3.943561
7.230000 -3.951975
7.240000 -3.960287
7.250000 -3.968787
7.260000 -3.977551
7.270000 -3.986480
7.280000 -3.995356
7.290000 -4.003892
7.300000 -4.011795
7.310000 -4.018815
7.320000 -4.024788
7.330000 -4.029665
7.340000 -4.033521
7.350000 -4.036550
7.360000 -4.039047
7.370000 -4.041365
7.380000 -4.043877
7.390000 -4.046930
7.400000 -4.050801
7.410000 -4.055663
7.420000 -4.061565
7.430000 -4.068427
7.440000 -4.076043
7.450000 -4.084115
7.460000 -4.092277
7.470000 -4.100144
7.480000 -4.107350
7.490000 -4.113586
7.500000 -4.118627
7.510000 -4.122347
7.520000 -4.124712
7.530000 -4.125767
7.540000 -4.125593
7.550000 -4.124265
7.560000 -4.121788
7.570000 -4.118040
7.580000 -4.112711
7.590000 -4.105253
7.600000 -4.094835
7.610000 -4.080322
7.620000 -4.060268
7.630000 -4.032928
7.640000 -3.996288
7.650000 -3.948121
7.660000 -3.886047
7.670000 -3.807621
7.680000 -3.710423
7.690000 -3.592162
7.700000 -3.450788
7.710000 -3.284604
7.720000 -3.092382
7.730000 -2.873481
7.740000 -2.627953
7.750000 -2.356642
7.760000 -2.061270
7.770000 -1.744495
7.780000 -1.409948
7.790000 -1.062227
7.800000 -0.706859
7.810000 -0.350208
7.820000 0.000664
7.830000 0.338180
7.840000 0.654482
7.850000 0.941699
7.860000 1.192248
7.870000 1.399144
7.880000 1.556311
7.890000 1.658866
7.900000 1.703375
7.910000 1.688041
7.920000 1.612824
7.930000 1.479489
7.940000 1.291547
7.950000 1.054131
7.960000 0.773773
7.970000 0.458126
7.980000 0.115627
7.990000 -0.244862
8.000000 -0.614419
8.010000 -0.984412
8.020000 -1.346794
8.030000 -1.694350
8.040000 -2.020847
8.050000 -2.321118
8.060000 -2.591042
8.070000 -2.827450
8.080000 -3.027960
8.090000 -3.190766
8.100000 -3.314393
8.110000 -3.397454
8.120000 -3.438434
8.130000 -3.435514
8.140000 -3.386472
8.150000 -3.288656
8.160000 -3.139061
8.170000 -2.934478
8.180000 -2.671745
8.190000 -2.348052
8.200000 -1.961298
8.210000 -1.510472
8.220000 -0.996021
8.230000 -0.420193
8.240000 0.212700
8.250000 0.896095
8.260000 1.621102
8.270000 2.376559
8.280000 3.149207
8.290000 3.923994
8.300000 4.684498
8.310000 5.413451
8.320000 6.093337
8.330000 6.707039
8.340000 7.238503
8.350000 7.673384
8.360000 7.999636
8.370000 8.208023
8.380000 8.292518
8.390000 8.250570
8.400000 8.083219
8.410000 7.795062
8.420000 7.394069
8.430000 6.891245
8.440000 6.300179
8.450000 5.636490
8.460000 4.917202
8.470000 4.160088
8.480000 3.383013
8.490000 2.603313
8.500000 1.837247
8.510000 1.099543
8.520000 0.403057
8.530000 -0.241436
8.540000 -0.825317
8.550000 -1.342081
8.560000 -1.787183
8.570000 -2.157789
8.580000 -2.452484
8.590000 -2.670944
8.600000 -2.813614
8.610000 -2.881435
8.620000 -2.875624
8.630000 -2.797544
8.640000 -2.648671
8.650000 -2.430654
8.660000 -2.145470
8.670000 -1.795642
8.680000 -1.384515
8.690000 -0.916530
8.700000 -0.397500
8.710000 0.165189
8.720000 0.762440
8.730000 1.383436
8.740000 2.015739
8.750000 2.645533
8.760000 3.257987
8.770000 3.837733
8.780000 4.369429
8.790000 4.838373
8.800000 5.231136
8.810000 5.536156
8.820000 5.744280
8.830000 5.849186
8.840000 5.847684
8.850000 5.739856
8.860000 5.529041
8.870000 5.221657
8.880000 4.826880
8.890000 4.356205
8.900000 3.822911
8.910000 3.241480
8.920000 2.627000
8.930000 1.994585
8.940000 1.358862
8.950000 0.733531
8.960000 0.131032
8.970000 -0.437677
8.980000 -0.963232
8.990000 -1.437877
9.000000 -1.855389
9.010000 -2.210943
9.020000 -2.500946
9.030000 -2.722849
9.040000 -2.874987
9.050000 -2.956450
9.060000 -2.966994
9.070000 -2.907025
9.080000 -2.777630
9.090000 -2.580665
9.100000 -2.318871
9.110000 -1.996024
9.120000 -1.617073
9.130000 -1.188255
9.140000 -0.717173
9.150000 -0.212803
9.160000 0.314570
9.170000 0.853502
9.180000 1.391626
9.190000 1.915958
9.200000 2.413287
9.210000 2.870594
9.220000 3.275515
9.230000 3.616794
9.240000 3.884722
9.250000 4.071521
9.260000 4.171662
9.270000 4.182085
9.280000 4.102329
9.290000 3.934542
9.300000 3.683381
9.310000 3.355808
9.320000 2.960795
9.330000 2.508944
9.340000 2.012055
9.350000 1.482666
9.360000 0.933569
9.370000 0.377361
9.380000 -0.173978
9.390000 -0.709453
9.400000 -1.219334
9.410000 -1.695373
9.420000 -2.130924
9.430000 -2.520980
9.440000 -2.862140
9.450000 -3.152505
9.460000 -3.391525
9.470000 -3.579816
9.480000 -3.718962
9.490000 -3.811311
9.500000 -3.859798
9.510000 -3.867790
9.520000 -3.838966
9.530000 -3.777233
9.540000 -3.686682
9.550000 -3.571567
9.560000 -3.436308
9.570000 -3.285501
9.580000 -3.123921
9.590000 -2.956515
9.600000 -2.788368
9.610000 -2.624632
9.620000 -2.470432
9.630000 -2.330730
9.640000 -2.210170
9.650000 -2.112906
9.660000 -2.042428
9.670000 -2.001392
9.680000 -1.991488
9.690000 -2.013330
9.700000 -2.066411
9.710000 -2.149093
9.720000 -2.258662
9.730000 -2.391432
9.740000 -2.542889
9.750000 -2.707868
9.760000 -2.880748
9.770000 -3.055645
9.780000 -3.226602
9.790000 -3.387753
9.800000 -3.533451
9.810000 -3.658370
9.820000 -3.757568
9.830000 -3.826529
9.840000 -3.861177
9.850000 -3.857895
9.860000 -3.813536
9.870000 -3.725465
9.880000 -3.591621
9.890000 -3.410606
9.900000 -3.181815
9.910000 -2.905578
9.920000 -2.583329
9.930000 -2.217761
9.940000 -1.812963
9.950000 -1.374511
9.960000 -0.909501
9.970000 -0.426499
9.980000 0.064598
9.990000 0.552800
10.000000 1.026349
10.010000 1.473122
10.020000 1.881101
10.030000 2.238877
10.040000 2.536149
10.050000 2.764214
10.060000 2.916385
10.070000 2.988330
10.080000 2.978313
10.090000 2.887302
10.100000 2.718970
10.110000 2.479568
10.120000 2.177695
10.130000 1.823981
10.140000 1.430715
10.150000 1.011431
10.160000 0.580486
10.170000 0.152657
10.180000 -0.257236
10.190000 -0.634661
10.200000 -0.965665
10.210000 -1.237110
10.220000 -1.436893
10.230000 -1.554128
10.240000 -1.579337
10.250000 -1.504637
10.260000 -1.323956
10.270000 -1.033258
10.280000 -0.630805
10.290000 -0.117407
10.300000 0.503321
10.310000 1.224749
10.320000 2.037078
10.330000 2.927283
10.340000 3.879181
10.350000 4.873638
10.360000 5.888939
10.370000 6.901314
10.380000 7.885625
10.390000 8.816171
10.400000 9.667603
10.410000 10.415877
10.420000 11.039213
10.430000 11.518997
10.440000 11.840575
10.450000 11.993879
10.460000 11.973861
10.470000 11.780691
10.480000 11.419719
10.490000 10.901187
10.500000 10.239724
10.510000 9.453644
10.520000 8.564096
10.530000 7.594123
10.540000 6.567667
10.550000 5.508604
10.560000 4.439838
10.570000 3.382512
10.580000 2.355367
10.590000 1.374276
10.600000 0.451957
10.610000 -0.402132
10.620000 -1.181733
10.630000 -1.883582
