# r(A)  G(r)
0.000000 0.000000
0.010000 -0.005387
0.020000 -0.010820
0.030000 -0.016337
0.040000 -0.021967
0.050000 -0.027725
0.060000 -0.033609
0.070000 -0.039601
0.080000 -0.045670
0.090000 -0.051775
0.100000 -0.057870
0.110000 -0.063911
0.120000 -0.069860
0.130000 -0.075692
0.140000 -0.081394
0.150000 -0.086973
0.160000 -0.092449
0.170000 -0.097857
0.180000 -0.103238
0.190000 -0.108639
0.200000 -0.114103
0.210000 -0.119666
0.220000 -0.125352
0.230000 -0.131167
0.240000 -0.137104
0.250000 -0.143138
0.260000 -0.149232
0.270000 -0.155344
0.280000 -0.161426
0.290000 -0.167436
0.300000 -0.173341
0.310000 -0.179120
0.320000 -0.184770
0.330000 -0.190301
0.340000 -0.195742
0.350000 -0.201131
0.360000 -0.206514
0.370000 -0.211936
0.380000 -0.217439
0.390000 -0.223055
0.400000 -0.228800
0.410000 -0.234675
0.420000 -0.240665
0.430000 -0.246739
0.440000 -0.252857
0.450000 -0.258972
0.460000 -0.265037
0.470000 -0.271014
0.480000 -0.276872
0.490000 -0.282599
0.500000 -0.288196
0.510000 -0.293684
0.520000 -0.299095
0.530000 -0.304473
0.540000 -0.309865
0.550000 -0.315317
0.560000 -0.320867
0.570000 -0.326541
0.580000 -0.332351
0.590000 -0.338289
0.600000 -0.344332
0.610000 -0.350445
0.620000 -0.356583
0.630000 -0.362696
0.640000 -0.368741
0.650000 -0.374680
0.660000 -0.380489
0.670000 -0.386162
0.680000 -0.391710
0.690000 -0.397158
0.700000 -0.402545
0.710000 -0.407919
0.720000 -0.413329
0.730000 -0.418819
0.740000 -0.424425
0.750000 -0.430165
0.760000 -0.436044
0.770000 -0.442047
0.780000 -0.448145
0.790000 -0.454295
0.800000 -0.460448
0.810000 -0.466555
0.820000 -0.472573
0.830000 -0.478469
0.840000 -0.484226
0.850000 -0.489844
0.860000 -0.495343
0.870000 -0.500754
0.880000 -0.506125
0.890000 -0.511504
0.900000 -0.516942
0.910000 -0.522481
0.920000 -0.528151
0.930000 -0.533966
0.940000 -0.539920
0.950000 -0.545991
0.960000 -0.552142
0.970000 -0.558325
0.980000 -0.564489
0.990000 -0.570583
1.000000 -0.576567
1.010000 -0.582413
1.020000 -0.588112
1.030000 -0.593674
1.040000 -0.599124
1.050000 -0.604505
1.060000 -0.609867
1.070000 -0.615262
1.080000 -0.620740
1.090000 -0.626341
1.100000 -0.632087
1.110000 -0.637985
1.120000 -0.644020
1.130000 -0.650162
1.140000 -0.656365
1.150000 -0.662576
1.160000 -0.668741
1.170000 -0.674811
1.180000 -0.680750
1.190000 -0.686537
1.200000 -0.692173
1.210000 -0.697675
1.220000 -0.703080
1.230000 -0.708436
1.240000 -0.713799
1.250000 -0.719225
1.260000 -0.724759
1.270000 -0.730438
1.280000 -0.736275
1.290000 -0.742267
1.300000 -0.748390
1.310000 -0.754602
1.320000 -0.760852
1.330000 -0.767080
1.340000 -0.773233
1.350000 -0.779265
1.360000 -0.785144
1.370000 -0.790860
1.380000 -0.796423
1.390000 -0.801863
1.400000 -0.807227
1.410000 -0.812569
1.420000 -0.817951
1.430000 -0.823427
1.440000 -0.829040
1.450000 -0.834818
1.460000 -0.840764
1.470000 -0.846862
1.480000 -0.853077
1.490000 -0.859357
1.500000 -0.865642
1.510000 -0.871871
1.520000 -0.877989
1.530000 -0.883957
1.540000 -0.889754
1.550000 -0.895382
1.560000 -0.900863
1.570000 -0.906242
1.580000 -0.911574
1.590000 -0.916924
1.600000 -0.922352
1.610000 -0.927912
1.620000 -0.933637
1.630000 -0.939543
1.640000 -0.945621
1.650000 -0.951837
1.660000 -0.958143
1.670000 -0.964476
1.680000 -0.970769
1.690000 -0.976962
1.700000 -0.983006
1.710000 -0.988873
1.720000 -0.994556
1.730000 -1.000075
1.740000 -1.005470
1.750000 -1.010799
1.760000 -1.016130
1.770000 -1.021529
1.780000 -1.027057
1.790000 -1.032755
1.800000 -1.038643
1.810000 -1.044717
1.820000 -1.050944
1.830000 -1.057275
1.840000 -1.063642
1.850000 -1.069975
1.860000 -1.076204
1.870000 -1.082273
1.880000 -1.088145
1.890000 -1.093806
1.900000 -1.099266
1.910000 -1.104556
1.920000 -1.109717
1.930000 -1.114793
1.940000 -1.119815
1.950000 -1.124787
1.960000 -1.129672
1.970000 -1.134379
1.980000 -1.138747
1.990000 -1.142537
2.000000 -1.145422
2.010000 -1.146979
2.020000 -1.146677
2.030000 -1.143871
2.040000 -1.137783
2.050000 -1.127491
2.060000 -1.111908
2.070000 -1.089763
2.080000 -1.059580
2.090000 -1.019667
2.100000 -0.968111
2.110000 -0.902782
2.120000 -0.821367
2.130000 -0.721413
2.140000 -0.600408
2.150000 -0.455884
2.160000 -0.285546
2.170000 -0.087428
2.180000 0.139937
2.190000 0.397339
2.200000 0.684715
2.210000 1.000986
2.220000 1.343933
2.230000 1.710105
2.240000 2.094792
2.250000 2.492049
2.260000 2.894809
2.270000 3.295043
2.280000 3.684010
2.290000 4.052549
2.300000 4.391422
2.310000 4.691688
2.320000 4.945079
2.330000 5.144366
2.340000 5.283687
2.350000 5.358819
2.360000 5.367380
2.370000 5.308940
2.380000 5.185046
2.390000 4.999145
2.400000 4.756421
2.410000 4.463555
2.420000 4.128414
2.430000 3.759704
2.440000 3.366586
2.450000 2.958305
2.460000 2.543828
2.470000 2.131524
2.480000 1.728897
2.490000 1.342385
2.500000 0.977227
2.510000 0.637404
2.520000 0.325645
2.530000 0.043492
2.540000 -0.208581
2.550000 -0.431020
2.560000 -0.625020
2.570000 -0.792346
2.580000 -0.935157
2.590000 -1.055843
2.600000 -1.156892
2.610000 -1.240770
2.620000 -1.309843
2.630000 -1.366311
2.640000 -1.412181
2.650000 -1.449247
2.660000 -1.479090
2.670000 -1.503090
2.680000 -1.522441
2.690000 -1.538163
2.700000 -1.551122
2.710000 -1.562040
2.720000 -1.571510
2.730000 -1.580002
2.740000 -1.587871
2.750000 -1.595372
2.760000 -1.602664
2.770000 -1.609830
2.780000 -1.616891
2.790000 -1.623822
2.800000 -1.630574
2.810000 -1.637095
2.820000 -1.643339
2.830000 -1.649289
2.840000 -1.654955
2.850000 -1.660384
2.860000 -1.665650
2.870000 -1.670852
2.880000 -1.676097
2.890000 -1.681486
2.900000 -1.687106
2.910000 -1.693010
2.920000 -1.699215
2.930000 -1.705696
2.940000 -1.712390
2.950000 -1.719204
2.960000 -1.726026
2.970000 -1.732739
2.980000 -1.739242
2.990000 -1.745456
3.000000 -1.751341
3.010000 -1.756901
3.020000 -1.762185
3.030000 -1.767277
3.040000 -1.772293
3.050000 -1.777360
3.060000 -1.782602
3.070000 -1.788121
3.080000 -1.793988
3.090000 -1.800227
3.100000 -1.806813
3.110000 -1.813677
3.120000 -1.820707
3.130000 -1.827770
3.140000 -1.834724
3.150000 -1.841438
3.160000 -1.847810
3.170000 -1.853780
3.180000 -1.859341
3.190000 -1.864540
3.200000 -1.869472
3.210000 -1.874273
3.220000 -1.879096
3.230000 -1.884099
3.240000 -1.889419
3.250000 -1.895156
3.260000 -1.901355
3.270000 -1.908004
3.280000 -1.915031
3.290000 -1.922310
3.300000 -1.929680
3.310000 -1.936962
3.320000 -1.943984
3.330000 -1.950601
3.340000 -1.956720
3.350000 -1.962307
3.360000 -1.967396
3.370000 -1.972086
3.380000 -1.976525
3.390000 -1.980891
3.400000 -1.985366
3.410000 -1.990103
3.420000 -1.995199
3.430000 -2.000666
3.440000 -2.006411
3.450000 -2.012225
3.460000 -2.017772
3.470000 -2.022592
3.480000 -2.026106
3.490000 -2.027620
3.500000 -2.026325
3.510000 -2.021293
3.520000 -2.011461
3.530000 -1.995594
3.540000 -1.972248
3.550000 -1.939711
3.560000 -1.895943
3.570000 -1.838514
3.580000 -1.764553
3.590000 -1.670716
3.600000 -1.553188
3.610000 -1.407725
3.620000 -1.229746
3.630000 -1.014477
3.640000 -0.757162
3.650000 -0.453309
3.660000 -0.099003
3.670000 0.308776
3.680000 0.771803
3.690000 1.290278
3.700000 1.862532
3.710000 2.484787
3.720000 3.151002
3.730000 3.852817
3.740000 4.579621
3.750000 5.318736
3.760000 6.055731
3.770000 6.774851
3.780000 7.459546
3.790000 8.093078
3.800000 8.659175
3.810000 9.142693
3.820000 9.530266
3.830000 9.810883
3.840000 9.976382
3.850000 10.021819
3.860000 9.945692
3.870000 9.750010
3.880000 9.440206
3.890000 9.024886
3.900000 8.515441
3.910000 7.925549
3.920000 7.270574
3.930000 6.566920
3.940000 5.831369
3.950000 5.080422
3.960000 4.329709
3.970000 3.593465
3.980000 2.884113
3.990000 2.211965
4.000000 1.585053
4.010000 1.009073
4.020000 0.487457
4.030000 0.021541
4.040000 -0.389186
4.050000 -0.746769
4.060000 -1.054450
4.070000 -1.316309
4.080000 -1.536930
4.090000 -1.721088
4.100000 -1.873490
4.110000 -1.998566
4.120000 -2.100321
4.130000 -2.182235
4.140000 -2.247227
4.150000 -2.297644
4.160000 -2.335290
4.170000 -2.361461
4.180000 -2.376995
4.190000 -2.382302
4.200000 -2.377393
4.210000 -2.361882
4.220000 -2.334976
4.230000 -2.295451
4.240000 -2.241623
4.250000 -2.171324
4.260000 -2.081895
4.270000 -1.970203
4.280000 -1.832708
4.290000 -1.665560
4.300000 -1.464764
4.310000 -1.226380
4.320000 -0.946782
4.330000 -0.622939
4.340000 -0.252722
4.350000 0.164789
4.360000 0.629021
4.370000 1.137666
4.380000 1.686509
4.390000 2.269331
4.400000 2.877919
4.410000 3.502185
4.420000 4.130388
4.430000 4.749473
4.440000 5.345494
4.450000 5.904120
4.460000 6.411190
4.470000 6.853287
4.480000 7.218305
4.490000 7.495972
4.500000 7.678307
4.510000 7.759972
4.520000 7.738510
4.530000 7.614452
4.540000 7.391282
4.550000 7.075271
4.560000 6.675187
4.570000 6.201895
4.580000 5.667876
4.590000 5.086698
4.600000 4.472447
4.610000 3.839186
4.620000 3.200426
4.630000 2.568677
4.640000 1.955066
4.650000 1.369057
4.660000 0.818265
4.670000 0.308383
4.680000 -0.156804
4.690000 -0.575317
4.700000 -0.946801
4.710000 -1.272305
4.720000 -1.554017
4.730000 -1.794985
4.740000 -1.998849
4.750000 -2.169583
4.760000 -2.311267
4.770000 -2.427905
4.780000 -2.523278
4.790000 -2.600841
4.800000 -2.663664
4.810000 -2.714410
4.820000 -2.755337
4.830000 -2.788327
4.840000 -2.814926
4.850000 -2.836400
4.860000 -2.853775
4.870000 -2.867897
4.880000 -2.879462
4.890000 -2.889057
4.900000 -2.897178
4.910000 -2.904248
4.920000 -2.910627
4.930000 -2.916616
4.940000 -2.922455
4.950000 -2.928326
4.960000 -2.934356
4.970000 -2.940613
4.980000 -2.947114
4.990000 -2.953832
5.000000 -2.960701
5.010000 -2.967627
5.020000 -2.974498
5.030000 -2.981192
5.040000 -2.987581
5.050000 -2.993541
5.060000 -2.998950
5.070000 -3.003686
5.080000 -3.007619
5.090000 -3.010603
5.100000 -3.012459
5.110000 -3.012955
5.120000 -3.011786
5.130000 -3.008548
5.140000 -3.002715
5.150000 -2.993617
5.160000 -2.980416
5.170000 -2.962100
5.180000 -2.937471
5.190000 -2.905158
5.200000 -2.863633
5.210000 -2.811252
5.220000 -2.746304
5.230000 -2.667082
5.240000 -2.571966
5.250000 -2.459526
5.260000 -2.328620
5.270000 -2.178514
5.280000 -2.008983
5.290000 -1.820412
5.300000 -1.613878
5.310000 -1.391208
5.320000 -1.155004
5.330000 -0.908640
5.340000 -0.656211
5.350000 -0.402446
5.360000 -0.152585
5.370000 0.087785
5.380000 0.312916
5.390000 0.517118
5.400000 0.694971
5.410000 0.841553
5.420000 0.952647
5.430000 1.024928
5.440000 1.056109
5.450000 1.045053
5.460000 0.991832
5.470000 0.897729
5.480000 0.765189
5.490000 0.597721
5.500000 0.399747
5.510000 0.176422
5.520000 -0.066581
5.530000 -0.323295
5.540000 -0.587691
5.550000 -0.853891
5.560000 -1.116370
5.570000 -1.370107
5.580000 -1.610713
5.590000 -1.834496
5.600000 -2.038483
5.610000 -2.220393
5.620000 -2.378567
5.630000 -2.511851
5.640000 -2.619470
5.650000 -2.700873
5.660000 -2.755580
5.670000 -2.783053
5.680000 -2.782575
5.690000 -2.753186
5.700000 -2.693650
5.710000 -2.602481
5.720000 -2.478026
5.730000 -2.318593
5.740000 -2.122629
5.750000 -1.888927
5.760000 -1.616860
5.770000 -1.306612
5.780000 -0.959398
5.790000 -0.577653
5.800000 -0.165163
5.810000 0.272856
5.820000 0.729770
5.830000 1.197609
5.840000 1.667244
5.850000 2.128635
5.860000 2.571161
5.870000 2.983989
5.880000 3.356500
5.890000 3.678710
5.900000 3.941694
5.910000 4.137970
5.920000 4.261829
5.930000 4.309587
5.940000 4.279747
5.950000 4.173065
5.960000 3.992502
5.970000 3.743087
5.980000 3.431680
5.990000 3.066662
6.000000 2.657565
6.010000 2.214665
6.020000 1.748563
6.030000 1.269772
6.040000 0.788334
6.050000 0.313492
6.060000 -0.146585
6.070000 -0.584997
6.080000 -0.996239
6.090000 -1.376243
6.100000 -1.722360
6.110000 -2.033267
6.120000 -2.308840
6.130000 -2.549974
6.140000 -2.758398
6.150000 -2.936460
6.160000 -3.086937
6.170000 -3.212845
6.180000 -3.317270
6.190000 -3.403237
6.200000 -3.473594
6.210000 -3.530939
6.220000 -3.577561
6.230000 -3.615424
6.240000 -3.646150
6.250000 -3.671037
6.260000 -3.691076
6.270000 -3.706974
6.280000 -3.719187
6.290000 -3.727934
6.300000 -3.733221
6.310000 -3.734841
6.320000 -3.732370
6.330000 -3.725150
6.340000 -3.712253
6.350000 -3.692445
6.360000 -3.664130
6.370000 -3.625299
6.380000 -3.573476
6.390000 -3.505676
6.400000 -3.418377
6.410000 -3.307525
6.420000 -3.168568
6.430000 -2.996534
6.440000 -2.786169
6.450000 -2.532112
6.460000 -2.229137
6.470000 -1.872440
6.480000 -1.457963
6.490000 -0.982753
6.500000 -0.445314
6.510000 0.154035
6.520000 0.812862
6.530000 1.526372
6.540000 2.287257
6.550000 3.085650
6.560000 3.909210
6.570000 4.743343
6.580000 5.571561
6.590000 6.375973
6.600000 7.137882
6.610000 7.838484
6.620000 8.459605
6.630000 8.984464
6.640000 9.398402
6.650000 9.689548
6.660000 9.849371
6.670000 9.873090
6.680000 9.759922
6.690000 9.513138
6.700000 9.139942
6.710000 8.651165
6.720000 8.060805
6.730000 7.385437
6.740000 6.643530
6.750000 5.854713
6.760000 5.039038
6.770000 4.216271
6.780000 3.405258
6.790000 2.623390
6.800000 1.886186
6.810000 1.207007
6.820000 0.596897
6.830000 0.064545
6.840000 -0.383659
6.850000 -0.743486
6.860000 -1.012691
6.870000 -1.190808
6.880000 -1.278950
6.890000 -1.279641
6.900000 -1.196681
6.910000 -1.035052
6.920000 -0.800866
6.930000 -0.501355
6.940000 -0.144855
6.950000 0.259189
6.960000 0.700263
6.970000 1.166856
6.980000 1.646601
6.990000 2.126472
7.000000 2.593075
7.010000 3.032992
7.020000 3.433183
7.030000 3.781433
7.040000 4.066796
7.050000 4.280032
7.060000 4.413986
7.070000 4.463897
7.080000 4.427603
7.090000 4.305630
7.100000 4.101153
7.110000 3.819828
7.120000 3.469513
7.130000 3.059875
7.140000 2.601933
7.150000 2.107547
7.160000 1.588885
7.170000 1.057920
7.180000 0.525958
7.190000 0.003249
7.200000 -0.501328
7.210000 -0.980464
7.220000 -1.428523
7.230000 -1.841552
7.240000 -2.217188
7.250000 -2.554505
7.260000 -2.853804
7.270000 -3.116372
7.280000 -3.344232
7.290000 -3.539901
7.300000 -3.706169
7.310000 -3.845916
7.320000 -3.961969
7.330000 -4.056990
7.340000 -4.133414
7.350000 -4.193408
7.360000 -4.238852
7.370000 -4.271331
7.380000 -4.292136
7.390000 -4.302257
7.400000 -4.302367
7.410000 -4.292800
7.420000 -4.273531
7.430000 -4.244142
7.440000 -4.203809
7.450000 -4.151297
7.460000 -4.084982
7.470000 -4.002906
7.480000 -3.902865
7.490000 -3.782530
7.500000 -3.639613
7.510000 -3.472045
7.520000 -3.278183
7.530000 -3.057013
7.540000 -2.808348
7.550000 -2.532993
7.560000 -2.232871
7.570000 -1.911100
7.580000 -1.571996
7.590000 -1.221017
7.600000 -0.864630
7.610000 -0.510121
7.620000 -0.165338
7.630000 0.161603
7.640000 0.462641
7.650000 0.730108
7.660000 0.957059
7.670000 1.137578
7.680000 1.267048
7.690000 1.342367
7.700000 1.362109
7.710000 1.326617
7.720000 1.238036
7.730000 1.100271
7.740000 0.918902
7.750000 0.701031
7.760000 0.455095
7.770000 0.190637
7.780000 -0.081950
7.790000 -0.351700
7.800000 -0.607367
7.810000 -0.837730
7.820000 -1.031904
7.830000 -1.179651
7.840000 -1.271689
7.850000 -1.300001
7.860000 -1.258124
7.870000 -1.141416
7.880000 -0.947301
7.890000 -0.675465
7.900000 -0.328001
7.910000 0.090509
7.920000 0.572993
7.930000 1.109973
7.940000 1.689740
7.950000 2.298630
7.960000 2.921387
7.970000 3.541616
7.980000 4.142306
7.990000 4.706405
8.000000 5.217421
8.010000 5.660029
8.020000 6.020648
8.030000 6.287959
8.040000 6.453340
8.050000 6.511193
8.060000 6.459145
8.070000 6.298112
8.080000 6.032216
8.090000 5.668569
8.100000 5.216935
8.110000 4.689278
8.120000 4.099233
8.130000 3.461526
8.140000 2.791373
8.150000 2.103887
8.160000 1.413533
8.170000 0.733638
8.180000 0.076007
8.190000 -0.549376
8.200000 -1.134525
8.210000 -1.673520
8.220000 -2.162470
8.230000 -2.599375
8.240000 -2.983915
8.250000 -3.317171
8.260000 -3.601305
8.270000 -3.839224
8.280000 -4.034241
8.290000 -4.189746
8.300000 -4.308923
8.310000 -4.394498
8.320000 -4.448547
8.330000 -4.472365
8.340000 -4.466392
8.350000 -4.430206
8.360000 -4.362573
8.370000 -4.261558
8.380000 -4.124683
8.390000 -3.949135
8.400000 -3.732006
8.410000 -3.470567
8.420000 -3.162552
8.430000 -2.806449
8.440000 -2.401785
8.450000 -1.949385
8.460000 -1.451592
8.470000 -0.912438
8.480000 -0.337741
8.490000 0.264872
8.500000 0.886029
8.510000 1.514784
8.520000 2.138863
8.530000 2.745023
8.540000 3.319472
8.550000 3.848367
8.560000 4.318343
8.570000 4.717072
8.580000 5.033801
8.590000 5.259853
8.600000 5.389062
8.610000 5.418108
8.620000 5.346735
8.630000 5.177840
8.640000 4.917419
8.650000 4.574368
8.660000 4.160155
8.670000 3.688373
8.680000 3.174196
8.690000 2.633766
8.700000 2.083548
8.710000 1.539679
8.720000 1.017349
8.730000 0.530235
8.740000 0.090027
8.750000 -0.293945
8.760000 -0.614968
8.770000 -0.869075
8.780000 -1.055058
8.790000 -1.174358
8.800000 -1.230854
8.810000 -1.230576
8.820000 -1.181332
8.830000 -1.092310
8.840000 -0.973640
8.850000 -0.835962
8.860000 -0.689997
8.870000 -0.546157
8.880000 -0.414184
8.890000 -0.302849
8.900000 -0.219695
8.910000 -0.170850
8.920000 -0.160897
8.930000 -0.192796
8.940000 -0.267882
8.950000 -0.385900
8.960000 -0.545106
8.970000 -0.742410
8.980000 -0.973554
8.990000 -1.233334
9.000000 -1.515838
9.010000 -1.814703
9.020000 -2.123382
9.030000 -2.435395
9.040000 -2.744573
9.050000 -3.045266
9.060000 -3.332526
9.070000 -3.602227
9.080000 -3.851153
9.090000 -4.077019
9.100000 -4.278446
9.110000 -4.454886
9.120000 -4.606506
9.130000 -4.734037
9.140000 -4.838609
9.150000 -4.921574
9.160000 -4.984343
9.170000 -5.028232
9.180000 -5.054354
9.190000 -5.063531
9.200000 -5.056265
9.210000 -5.032747
9.220000 -4.992908
9.230000 -4.936505
9.240000 -4.863240
9.250000 -4.772888
9.260000 -4.665440
9.270000 -4.541225
9.280000 -4.401025
9.290000 -4.246158
9.300000 -4.078522
9.310000 -3.900599
9.320000 -3.715422
9.330000 -3.526493
9.340000 -3.337667
9.350000 -3.153004
9.360000 -2.976596
9.370000 -2.812378
9.380000 -2.663935
9.390000 -2.534307
9.400000 -2.425812
9.410000 -2.339886
9.420000 -2.276951
9.430000 -2.236323
9.440000 -2.216153
9.450000 -2.213421
9.460000 -2.223974
9.470000 -2.242622
9.480000 -2.263278
9.490000 -2.279155
9.500000 -2.283014
9.510000 -2.267447
9.520000 -2.225200
9.530000 -2.149521
9.540000 -2.034511
9.550000 -1.875479
9.560000 -1.669263
9.570000 -1.414512
9.580000 -1.111915
9.590000 -0.764332
9.600000 -0.376857
9.610000 0.043249
9.620000 0.486710
9.630000 0.942513
9.640000 1.398281
9.650000 1.840726
9.660000 2.256181
9.670000 2.631169
9.680000 2.952976
9.690000 3.210218
9.700000 3.393348
9.710000 3.495088
9.720000 3.510753
9.730000 3.438455
9.740000 3.279166
9.750000 3.036651
9.760000 2.717261
9.770000 2.329615
9.780000 1.884184
9.790000 1.392805
9.800000 0.868164
9.810000 0.323272
9.820000 -0.229024
9.830000 -0.776474
9.840000 -1.307771
9.850000 -1.812798
9.860000 -2.282764
9.870000 -2.710225
9.880000 -3.089018
9.890000 -3.414092
9.900000 -3.681288
9.910000 -3.887088
9.920000 -4.028347
9.930000 -4.102067
9.940000 -4.105215
9.950000 -4.034622
9.960000 -3.886975
9.970000 -3.658917
9.980000 -3.347238
9.990000 -2.949177
10.000000 -2.462783
10.010000 -1.887337
10.020000 -1.223791
10.030000 -0.475185
10.040000 0.352982
10.050000 1.252472
10.060000 2.212159
10.070000 3.218015
10.080000 4.253274
10.090000 5.298764
10.100000 6.333416
10.110000 7.334933
10.120000 8.280585
10.130000 9.148108
10.140000 9.916657
10.150000 10.567756
10.160000 11.086207
10.170000 11.460883
10.180000 11.685379
10.190000 11.758452
10.200000 11.684231
10.210000 11.472175
10.220000 11.136760
10.230000 10.696906
10.240000 10.175177
10.250000 9.596767
10.260000 8.988355
10.270000 8.376849
10.280000 7.788120
10.290000 7.245779
10.300000 6.770060
10.310000 6.376884
10.320000 6.077153
10.330000 5.876295
10.340000 5.774119
10.350000 5.764949
10.360000 5.838049
10.370000 5.978309
10.380000 6.167137
10.390000 6.383515
10.400000 6.605147
10.410000 6.809641
10.420000 6.975645
10.430000 7.083887
10.440000 7.118059
10.450000 7.065501
10.460000 6.917662
10.470000 6.670320
10.480000 6.323564
10.490000 5.881557
10.500000 5.352106
10.510000 4.746079
10.520000 4.076715
10.530000 3.358867
10.540000 2.608247
10.550000 1.840687
10.560000 1.071482
10.570000 0.314826
10.580000 -0.416627
10.590000 -1.112078
10.600000 -1.762762
10.610000 -2.362005
10.620000 -2.905179
10.630000 -3.389560
10.640000 -3.814131
10.650000 -4.179332
