# r(A)  G(r)
0.000000 0.000000
0.010000 -0.006437
0.020000 -0.012830
0.030000 -0.019143
0.040000 -0.025347
0.050000 -0.031428
0.060000 -0.037386
0.070000 -0.043236
0.080000 -0.049005
0.090000 -0.054734
0.100000 -0.060463
0.110000 -0.066237
0.120000 -0.072093
0.130000 -0.078057
0.140000 -0.084146
0.150000 -0.090357
0.160000 -0.096676
0.170000 -0.103074
0.180000 -0.109512
0.190000 -0.115948
0.200000 -0.122338
0.210000 -0.128646
0.220000 -0.134844
0.230000 -0.140918
0.240000 -0.146869
0.250000 -0.152714
0.260000 -0.158481
0.270000 -0.164209
0.280000 -0.169941
0.290000 -0.175720
0.300000 -0.181582
0.310000 -0.187555
0.320000 -0.193652
0.330000 -0.199872
0.340000 -0.206198
0.350000 -0.212600
0.360000 -0.219041
0.370000 -0.225476
0.380000 -0.231864
0.390000 -0.238167
0.400000 -0.244360
0.410000 -0.250428
0.420000 -0.256373
0.430000 -0.262214
0.440000 -0.267979
0.450000 -0.273706
0.460000 -0.279441
0.470000 -0.285224
0.480000 -0.291093
0.490000 -0.297073
0.500000 -0.303178
0.510000 -0.309405
0.520000 -0.315736
0.530000 -0.322142
0.540000 -0.328584
0.550000 -0.335018
0.560000 -0.341401
0.570000 -0.347698
0.580000 -0.353883
0.590000 -0.359943
0.600000 -0.365881
0.610000 -0.371714
0.620000 -0.377474
0.630000 -0.383198
0.640000 -0.388931
0.650000 -0.394715
0.660000 -0.400585
0.670000 -0.406567
0.680000 -0.412673
0.690000 -0.418899
0.700000 -0.425227
0.710000 -0.431626
0.720000 -0.438057
0.730000 -0.444476
0.740000 -0.450841
0.750000 -0.457115
0.760000 -0.463273
0.770000 -0.469304
0.780000 -0.475211
0.790000 -0.481012
0.800000 -0.486738
0.810000 -0.492428
0.820000 -0.498125
0.830000 -0.503871
0.840000 -0.509701
0.850000 -0.515638
0.860000 -0.521694
0.870000 -0.527864
0.880000 -0.534127
0.890000 -0.540452
0.900000 -0.546798
0.910000 -0.553121
0.920000 -0.559378
0.930000 -0.565532
0.940000 -0.571559
0.950000 -0.577446
0.960000 -0.583197
0.970000 -0.588829
0.980000 -0.594373
0.990000 -0.599867
1.000000 -0.605353
1.010000 -0.610871
1.020000 -0.616453
1.030000 -0.622123
1.040000 -0.627887
1.050000 -0.633738
1.060000 -0.639654
1.070000 -0.645600
1.080000 -0.651533
1.090000 -0.657407
1.100000 -0.663176
1.110000 -0.668802
1.120000 -0.674258
1.130000 -0.679530
1.140000 -0.684620
1.150000 -0.689544
1.160000 -0.694328
1.170000 -0.699009
1.180000 -0.703625
1.190000 -0.708212
1.200000 -0.712799
1.210000 -0.717404
1.220000 -0.722029
1.230000 -0.726662
1.240000 -0.731276
1.250000 -0.735831
1.260000 -0.740280
1.270000 -0.744570
1.280000 -0.748654
1.290000 -0.752488
1.300000 -0.756041
1.310000 -0.759296
1.320000 -0.762249
1.330000 -0.764913
1.340000 -0.767311
1.350000 -0.769473
1.360000 -0.771433
1.370000 -0.773222
1.380000 -0.774863
1.390000 -0.776368
1.400000 -0.777733
1.410000 -0.778942
1.420000 -0.779961
1.430000 -0.780746
1.440000 -0.781243
1.450000 -0.781399
1.460000 -0.781159
1.470000 -0.780479
1.480000 -0.779325
1.490000 -0.777676
1.500000 -0.775528
1.510000 -0.772892
1.520000 -0.769790
1.530000 -0.766251
1.540000 -0.762308
1.550000 -0.757991
1.560000 -0.753323
1.570000 -0.748316
1.580000 -0.742969
1.590000 -0.737263
1.600000 -0.731170
1.610000 -0.724646
1.620000 -0.717644
1.630000 -0.710114
1.640000 -0.702009
1.650000 -0.693290
1.660000 -0.683934
1.670000 -0.673929
1.680000 -0.663282
1.690000 -0.652015
1.700000 -0.640160
1.710000 -0.627762
1.720000 -0.614865
1.730000 -0.601515
1.740000 -0.587750
1.750000 -0.573596
1.760000 -0.559068
1.770000 -0.544166
1.780000 -0.528878
1.790000 -0.513183
1.800000 -0.497052
1.810000 -0.480457
1.820000 -0.463374
1.830000 -0.445789
1.840000 -0.427700
1.850000 -0.409124
1.860000 -0.390092
1.870000 -0.370652
1.880000 -0.350864
1.890000 -0.330798
1.900000 -0.310525
1.910000 -0.290118
1.920000 -0.269639
1.930000 -0.249143
1.940000 -0.228669
1.950000 -0.208244
1.960000 -0.187880
1.970000 -0.167581
1.980000 -0.147345
1.990000 -0.127167
2.000000 -0.107048
2.010000 -0.086997
2.020000 -0.067037
2.030000 -0.047205
2.040000 -0.027553
2.050000 -0.008149
2.060000 0.010928
2.070000 0.029594
2.080000 0.047761
2.090000 0.065347
2.100000 0.082277
2.110000 0.098490
2.120000 0.113938
2.130000 0.128592
2.140000 0.142435
2.150000 0.155464
2.160000 0.167683
2.170000 0.179098
2.180000 0.189714
2.190000 0.199528
2.200000 0.208527
2.210000 0.216685
2.220000 0.223962
2.230000 0.230306
2.240000 0.235658
2.250000 0.239952
2.260000 0.243126
2.270000 0.245120
2.280000 0.245889
2.290000 0.245400
2.300000 0.243639
2.310000 0.240608
2.320000 0.236328
2.330000 0.230831
2.340000 0.224159
2.350000 0.216357
2.360000 0.207470
2.370000 0.197535
2.380000 0.186581
2.390000 0.174625
2.400000 0.161669
2.410000 0.147706
2.420000 0.132721
2.430000 0.116694
2.440000 0.099606
2.450000 0.081447
2.460000 0.062215
2.470000 0.041925
2.480000 0.020608
2.490000 -0.001688
2.500000 -0.024899
2.510000 -0.048948
2.520000 -0.073752
2.530000 -0.099223
2.540000 -0.125279
2.550000 -0.151842
2.560000 -0.178848
2.570000 -0.206247
2.580000 -0.234000
2.590000 -0.262084
2.600000 -0.290483
2.610000 -0.319189
2.620000 -0.348191
2.630000 -0.377475
2.640000 -0.407017
2.650000 -0.436779
2.660000 -0.466711
2.670000 -0.496744
2.680000 -0.526797
2.690000 -0.556780
2.700000 -0.586595
2.710000 -0.616146
2.720000 -0.645340
2.730000 -0.674094
2.740000 -0.702339
2.750000 -0.730022
2.760000 -0.757105
2.770000 -0.783563
2.780000 -0.809384
2.790000 -0.834561
2.800000 -0.859088
2.810000 -0.882957
2.820000 -0.906150
2.830000 -0.928636
2.840000 -0.950373
2.850000 -0.971302
2.860000 -0.991354
2.870000 -1.010449
2.880000 -1.028505
2.890000 -1.045437
2.900000 -1.061170
2.910000 -1.075637
2.920000 -1.088787
2.930000 -1.100584
2.940000 -1.111009
2.950000 -1.120057
2.960000 -1.127735
2.970000 -1.134056
2.980000 -1.139035
2.990000 -1.142683
3.000000 -1.145002
3.010000 -1.145985
3.020000 -1.145608
3.030000 -1.143837
3.040000 -1.140624
3.050000 -1.135913
3.060000 -1.129645
3.070000 -1.121763
3.080000 -1.112218
3.090000 -1.100969
3.100000 -1.087994
3.110000 -1.073286
3.120000 -1.056856
3.130000 -1.038730
3.140000 -1.018944
3.150000 -0.997545
3.160000 -0.974579
3.170000 -0.950090
3.180000 -0.924116
3.190000 -0.896682
3.200000 -0.867801
3.210000 -0.837475
3.220000 -0.805694
3.230000 -0.772443
3.240000 -0.737701
3.250000 -0.701455
3.260000 -0.663698
3.270000 -0.624434
3.280000 -0.583686
3.290000 -0.541493
3.300000 -0.497914
3.310000 -0.453023
3.320000 -0.406904
3.330000 -0.359651
3.340000 -0.311361
3.350000 -0.262125
3.360000 -0.212030
3.370000 -0.161149
3.380000 -0.109545
3.390000 -0.057268
3.400000 -0.004355
3.410000 0.049162
3.420000 0.103253
3.430000 0.157887
3.440000 0.213024
3.450000 0.268615
3.460000 0.324592
3.470000 0.380874
3.480000 0.437362
3.490000 0.493944
3.500000 0.550499
3.510000 0.606899
3.520000 0.663019
3.530000 0.718738
3.540000 0.773946
3.550000 0.828548
3.560000 0.882464
3.570000 0.935629
3.580000 0.987994
3.590000 1.039518
3.600000 1.090169
3.610000 1.139913
3.620000 1.188714
3.630000 1.236527
3.640000 1.283296
3.650000 1.328953
3.660000 1.373417
3.670000 1.416598
3.680000 1.458401
3.690000 1.498729
3.700000 1.537492
3.710000 1.574606
3.720000 1.610006
3.730000 1.643641
3.740000 1.675482
3.750000 1.705515
3.760000 1.733748
3.770000 1.760198
3.780000 1.784891
3.790000 1.807857
3.800000 1.829124
3.810000 1.848711
3.820000 1.866630
3.830000 1.882881
3.840000 1.897453
3.850000 1.910326
3.860000 1.921474
3.870000 1.930873
3.880000 1.938503
3.890000 1.944352
3.900000 1.948424
3.910000 1.950739
3.920000 1.951333
3.930000 1.950262
3.940000 1.947594
3.950000 1.943410
3.960000 1.937794
3.970000 1.930832
3.980000 1.922603
3.990000 1.913177
4.000000 1.902610
4.010000 1.890944
4.020000 1.878205
4.030000 1.864409
4.040000 1.849563
4.050000 1.833668
4.060000 1.816727
4.070000 1.798750
4.080000 1.779756
4.090000 1.759777
4.100000 1.738859
4.110000 1.717060
4.120000 1.694450
4.130000 1.671105
4.140000 1.647103
4.150000 1.622517
4.160000 1.597412
4.170000 1.571839
4.180000 1.545834
4.190000 1.519415
4.200000 1.492583
4.210000 1.465324
4.220000 1.437615
4.230000 1.409428
4.240000 1.380734
4.250000 1.351509
4.260000 1.321738
4.270000 1.291421
4.280000 1.260570
4.290000 1.229208
4.300000 1.197372
4.310000 1.165105
4.320000 1.132451
4.330000 1.099452
4.340000 1.066143
4.350000 1.032544
4.360000 0.998663
4.370000 0.964493
4.380000 0.930012
4.390000 0.895185
4.400000 0.859971
4.410000 0.824326
4.420000 0.788210
4.430000 0.751589
4.440000 0.714444
4.450000 0.676771
4.460000 0.638581
4.470000 0.599903
4.480000 0.560778
4.490000 0.521257
4.500000 0.481396
4.510000 0.441250
4.520000 0.400868
4.530000 0.360291
4.540000 0.319545
4.550000 0.278646
4.560000 0.237596
4.570000 0.196388
4.580000 0.155008
4.590000 0.113442
4.600000 0.071683
4.610000 0.029729
4.620000 -0.012404
4.630000 -0.054686
4.640000 -0.097072
4.650000 -0.139496
4.660000 -0.181884
4.670000 -0.224151
4.680000 -0.266207
4.690000 -0.307966
4.700000 -0.349349
4.710000 -0.390287
4.720000 -0.430724
4.730000 -0.470621
4.740000 -0.509952
4.750000 -0.548702
4.760000 -0.586866
4.770000 -0.624438
4.780000 -0.661413
4.790000 -0.697776
4.800000 -0.733504
4.810000 -0.768558
4.820000 -0.802885
4.830000 -0.836422
4.840000 -0.869093
4.850000 -0.900817
4.860000 -0.931513
4.870000 -0.961106
4.880000 -0.989530
4.890000 -1.016733
4.900000 -1.042681
4.910000 -1.067356
4.920000 -1.090758
4.930000 -1.112901
4.940000 -1.133807
4.950000 -1.153504
4.960000 -1.172021
4.970000 -1.189378
4.980000 -1.205588
4.990000 -1.220652
5.000000 -1.234558
5.010000 -1.247282
5.020000 -1.258794
5.030000 -1.269056
5.040000 -1.278034
5.050000 -1.285698
5.060000 -1.292029
5.070000 -1.297023
5.080000 -1.300694
5.090000 -1.303072
5.100000 -1.304203
5.110000 -1.304149
5.120000 -1.302977
5.130000 -1.300760
5.140000 -1.297570
5.150000 -1.293469
5.160000 -1.288512
5.170000 -1.282738
5.180000 -1.276173
5.190000 -1.268831
5.200000 -1.260714
5.210000 -1.251820
5.220000 -1.242145
5.230000 -1.231690
5.240000 -1.220466
5.250000 -1.208495
5.260000 -1.195814
5.270000 -1.182478
5.280000 -1.168554
5.290000 -1.154119
5.300000 -1.139258
5.310000 -1.124057
5.320000 -1.108598
5.330000 -1.092952
5.340000 -1.077180
5.350000 -1.061325
5.360000 -1.045415
5.370000 -1.029464
5.380000 -1.013473
5.390000 -0.997435
5.400000 -0.981344
5.410000 -0.965192
5.420000 -0.948984
5.430000 -0.932732
5.440000 -0.916463
5.450000 -0.900218
5.460000 -0.884051
5.470000 -0.868023
5.480000 -0.852203
5.490000 -0.836656
5.500000 -0.821444
5.510000 -0.806618
5.520000 -0.792212
5.530000 -0.778248
5.540000 -0.764727
5.550000 -0.751635
5.560000 -0.738948
5.570000 -0.726632
5.580000 -0.714650
5.590000 -0.702969
5.600000 -0.691561
5.610000 -0.680410
5.620000 -0.669514
5.630000 -0.658881
5.640000 -0.648534
5.650000 -0.638503
5.660000 -0.628822
5.670000 -0.619524
5.680000 -0.610634
5.690000 -0.602170
5.700000 -0.594130
5.710000 -0.586499
5.720000 -0.579243
5.730000 -0.572314
5.740000 -0.565649
5.750000 -0.559180
5.760000 -0.552836
5.770000 -0.546549
5.780000 -0.540257
5.790000 -0.533912
5.800000 -0.527478
5.810000 -0.520933
5.820000 -0.514266
5.830000 -0.507478
5.840000 -0.500571
5.850000 -0.493550
5.860000 -0.486412
5.870000 -0.479144
5.880000 -0.471722
5.890000 -0.464102
5.900000 -0.456228
5.910000 -0.448029
5.920000 -0.439426
5.930000 -0.430331
5.940000 -0.420659
5.950000 -0.410330
5.960000 -0.399273
5.970000 -0.387432
5.980000 -0.374768
5.990000 -0.361257
6.000000 -0.346890
6.010000 -0.331671
6.020000 -0.315610
6.030000 -0.298720
6.040000 -0.281012
6.050000 -0.262487
6.060000 -0.243139
6.070000 -0.222946
6.080000 -0.201878
6.090000 -0.179891
6.100000 -0.156937
6.110000 -0.132965
6.120000 -0.107926
6.130000 -0.081784
6.140000 -0.054512
6.150000 -0.026104
6.160000 0.003430
6.170000 0.034060
6.180000 0.065738
6.190000 0.098403
6.200000 0.131984
6.210000 0.166407
6.220000 0.201598
6.230000 0.237492
6.240000 0.274029
6.250000 0.311163
6.260000 0.348860
6.270000 0.387093
6.280000 0.425844
6.290000 0.465094
6.300000 0.504821
6.310000 0.544996
6.320000 0.585576
6.330000 0.626502
6.340000 0.667696
6.350000 0.709065
6.360000 0.750500
6.370000 0.791880
6.380000 0.833078
6.390000 0.873967
6.400000 0.914423
6.410000 0.954334
6.420000 0.993599
6.430000 1.032133
6.440000 1.069866
6.450000 1.106740
6.460000 1.142711
6.470000 1.177737
6.480000 1.211778
6.490000 1.244790
6.500000 1.276720
6.510000 1.307506
6.520000 1.337069
6.530000 1.365321
6.540000 1.392164
6.550000 1.417491
6.560000 1.441197
6.570000 1.463180
6.580000 1.483348
6.590000 1.501623
6.600000 1.517946
6.610000 1.532275
6.620000 1.544591
6.630000 1.554889
6.640000 1.563180
6.650000 1.569483
6.660000 1.573823
6.670000 1.576220
6.680000 1.576693
6.690000 1.575248
6.700000 1.571883
6.710000 1.566585
6.720000 1.559336
6.730000 1.550109
6.740000 1.538882
6.750000 1.525636
6.760000 1.510365
6.770000 1.493076
6.780000 1.473797
6.790000 1.452572
6.800000 1.429469
6.810000 1.404567
6.820000 1.377962
6.830000 1.349757
6.840000 1.320056
6.850000 1.288960
6.860000 1.256564
6.870000 1.222951
6.880000 1.188190
6.890000 1.152340
6.900000 1.115449
6.910000 1.077557
6.920000 1.038703
6.930000 0.998930
6.940000 0.958286
6.950000 0.916833
6.960000 0.874648
6.970000 0.831823
6.980000 0.788467
6.990000 0.744698
7.000000 0.700648
7.010000 0.656447
7.020000 0.612227
7.030000 0.568110
7.040000 0.524208
7.050000 0.480617
7.060000 0.437415
7.070000 0.394667
7.080000 0.352421
7.090000 0.310715
7.100000 0.269582
7.110000 0.229055
7.120000 0.189169
7.130000 0.149971
7.140000 0.111516
7.150000 0.073874
7.160000 0.037125
7.170000 0.001359
7.180000 -0.033328
7.190000 -0.066841
7.200000 -0.099090
7.210000 -0.129996
7.220000 -0.159494
7.230000 -0.187537
7.240000 -0.214097
7.250000 -0.239164
7.260000 -0.262746
7.270000 -0.284860
7.280000 -0.305534
7.290000 -0.324793
7.300000 -0.342662
7.310000 -0.359159
7.320000 -0.374288
7.330000 -0.388045
7.340000 -0.400414
7.350000 -0.411368
7.360000 -0.420879
7.370000 -0.428916
7.380000 -0.435457
7.390000 -0.440489
7.400000 -0.444012
7.410000 -0.446045
7.420000 -0.446626
7.430000 -0.445809
7.440000 -0.443664
7.450000 -0.440270
7.460000 -0.435712
7.470000 -0.430077
7.480000 -0.423443
7.490000 -0.415880
7.500000 -0.407447
7.510000 -0.398187
7.520000 -0.388130
7.530000 -0.377297
7.540000 -0.365699
7.550000 -0.353349
7.560000 -0.340260
7.570000 -0.326454
7.580000 -0.311966
7.590000 -0.296843
7.600000 -0.281150
7.610000 -0.264966
7.620000 -0.248378
7.630000 -0.231485
7.640000 -0.214384
7.650000 -0.197171
7.660000 -0.179932
7.670000 -0.162740
7.680000 -0.145652
7.690000 -0.128709
7.700000 -0.111934
7.710000 -0.095339
7.720000 -0.078924
7.730000 -0.062686
7.740000 -0.046622
7.750000 -0.030735
7.760000 -0.015037
7.770000 0.000446
7.780000 0.015677
7.790000 0.030606
7.800000 0.045174
7.810000 0.059316
7.820000 0.072970
7.830000 0.086075
7.840000 0.098584
7.850000 0.110463
7.860000 0.121695
7.870000 0.132281
7.880000 0.142238
7.890000 0.151597
7.900000 0.160398
7.910000 0.168686
7.920000 0.176505
7.930000 0.183891
7.940000 0.190872
7.950000 0.197459
7.960000 0.203652
7.970000 0.209438
7.980000 0.214792
7.990000 0.219684
8.000000 0.224081
8.010000 0.227956
8.020000 0.231289
8.030000 0.234074
8.040000 0.236319
8.050000 0.238047
8.060000 0.239296
8.070000 0.240114
8.080000 0.240556
8.090000 0.240680
8.100000 0.240537
8.110000 0.240171
8.120000 0.239611
8.130000 0.238872
8.140000 0.237950
8.150000 0.236828
8.160000 0.235475
8.170000 0.233852
8.180000 0.231916
8.190000 0.229626
8.200000 0.226950
8.210000 0.223865
8.220000 0.220360
8.230000 0.216441
8.240000 0.212123
8.250000 0.207434
8.260000 0.202405
8.270000 0.197067
8.280000 0.191448
8.290000 0.185563
8.300000 0.179415
8.310000 0.172991
8.320000 0.166262
8.330000 0.159182
8.340000 0.151694
8.350000 0.143736
8.360000 0.135241
8.370000 0.126146
8.380000 0.116398
8.390000 0.105955
8.400000 0.094791
8.410000 0.082896
8.420000 0.070272
8.430000 0.056936
8.440000 0.042910
8.450000 0.028218
8.460000 0.012883
8.470000 -0.003081
8.480000 -0.019671
8.490000 -0.036897
8.500000 -0.054784
8.510000 -0.073366
8.520000 -0.092690
8.530000 -0.112804
8.540000 -0.133755
8.550000 -0.155586
8.560000 -0.178325
8.570000 -0.201986
8.580000 -0.226567
8.590000 -0.252046
8.600000 -0.278384
8.610000 -0.305530
8.620000 -0.333423
8.630000 -0.361999
8.640000 -0.391193
8.650000 -0.420949
8.660000 -0.451220
8.670000 -0.481972
8.680000 -0.513182
8.690000 -0.544840
8.700000 -0.576942
8.710000 -0.609490
8.720000 -0.642482
8.730000 -0.675910
8.740000 -0.709755
8.750000 -0.743982
8.760000 -0.778541
8.770000 -0.813362
8.780000 -0.848361
8.790000 -0.883443
8.800000 -0.918503
8.810000 -0.953438
8.820000 -0.988145
8.830000 -1.022532
8.840000 -1.056519
8.850000 -1.090039
8.860000 -1.123042
8.870000 -1.155492
8.880000 -1.187361
8.890000 -1.218628
8.900000 -1.249275
8.910000 -1.279278
8.920000 -1.308603
8.930000 -1.337206
8.940000 -1.365028
8.950000 -1.391996
8.960000 -1.418026
8.970000 -1.443021
8.980000 -1.466886
8.990000 -1.489523
9.000000 -1.510843
9.010000 -1.530768
9.020000 -1.549235
9.030000 -1.566199
9.040000 -1.581632
9.050000 -1.595522
9.060000 -1.607870
9.070000 -1.618684
9.080000 -1.627976
9.090000 -1.635752
9.100000 -1.642016
9.110000 -1.646756
9.120000 -1.649950
9.130000 -1.651563
9.140000 -1.651548
9.150000 -1.649852
9.160000 -1.646417
9.170000 -1.641189
9.180000 -1.634121
9.190000 -1.625179
9.200000 -1.614342
9.210000 -1.601610
9.220000 -1.586998
9.230000 -1.570538
9.240000 -1.552272
9.250000 -1.532249
9.260000 -1.510523
9.270000 -1.487141
9.280000 -1.462142
9.290000 -1.435554
9.300000 -1.407392
9.310000 -1.377654
9.320000 -1.346329
9.330000 -1.313398
9.340000 -1.278836
9.350000 -1.242620
9.360000 -1.204735
9.370000 -1.165178
9.380000 -1.123957
9.390000 -1.081101
9.400000 -1.036653
9.410000 -0.990669
9.420000 -0.943219
9.430000 -0.894376
9.440000 -0.844215
9.450000 -0.792805
9.460000 -0.740209
9.470000 -0.686473
9.480000 -0.631631
9.490000 -0.575704
9.500000 -0.518699
9.510000 -0.460615
9.520000 -0.401449
9.530000 -0.341200
9.540000 -0.279872
9.550000 -0.217483
9.560000 -0.154066
9.570000 -0.089670
9.580000 -0.024362
9.590000 0.041776
9.600000 0.108652
9.610000 0.176167
9.620000 0.244221
9.630000 0.312718
9.640000 0.381571
9.650000 0.450703
9.660000 0.520053
9.670000 0.589572
9.680000 0.659221
9.690000 0.728969
9.700000 0.798787
9.710000 0.868644
9.720000 0.938499
9.730000 1.008298
9.740000 1.077974
9.750000 1.147439
9.760000 1.216589
9.770000 1.285307
9.780000 1.353462
9.790000 1.420921
9.800000 1.487546
9.810000 1.553208
9.820000 1.617786
9.830000 1.681171
9.840000 1.743270
9.850000 1.804004
9.860000 1.863306
9.870000 1.921119
9.880000 1.977389
9.890000 2.032060
9.900000 2.085072
9.910000 2.136354
9.920000 2.185821
9.930000 2.233374
9.940000 2.278902
9.950000 2.322280
9.960000 2.363380
9.970000 2.402069
9.980000 2.438219
9.990000 2.471713
10.000000 2.502446
10.010000 2.530333
10.020000 2.555306
10.030000 2.577318
10.040000 2.596339
10.050000 2.612350
10.060000 2.625342
10.070000 2.635311
10.080000 2.642249
10.090000 2.646144
10.100000 2.646973
10.110000 2.644707
10.120000 2.639304
10.130000 2.630718
10.140000 2.618901
10.150000 2.603805
10.160000 2.585392
10.170000 2.563637
10.180000 2.538534
10.190000 2.510096
10.200000 2.478358
10.210000 2.443379
10.220000 2.405234
10.230000 2.364015
10.240000 2.319822
10.250000 2.272761
10.260000 2.222937
10.270000 2.170447
10.280000 2.115383
10.290000 2.057824
10.300000 1.997841
10.310000 1.935497
10.320000 1.870852
10.330000 1.803968
10.340000 1.734912
10.350000 1.663763
10.360000 1.590616
10.370000 1.515582
10.380000 1.438793
10.390000 1.360397
10.400000 1.280559
10.410000 1.199453
10.420000 1.117259
10.430000 1.034154
10.440000 0.950312
10.450000 0.865894
10.460000 0.781048
10.470000 0.695907
10.480000 0.610588
10.490000 0.525197
10.500000 0.439829
10.510000 0.354575
10.520000 0.269530
10.530000 0.184792
10.540000 0.100469
10.550000 0.016683
10.560000 -0.066433
10.570000 -0.148732
10.580000 -0.230059
10.590000 -0.310254
10.600000 -0.389158
10.610000 -0.466617
10.620000 -0.542490
10.630000 -0.616650
10.640000 -0.688991
10.650000 -0.759425
10.660000 -0.827885
10.670000 -0.894319
10.680000 -0.958688
10.690000 -1.020961
10.700000 -1.081110
