# r(A)  G(r)  (via Fourier transform of I(Q))
0.000000 0.000000
0.010000 0.001035
0.020000 0.001944
0.030000 0.002617
0.040000 0.002973
0.050000 0.002969
0.060000 0.002604
0.070000 0.001924
0.080000 0.001011
0.090000 -0.000025
0.100000 -0.001058
0.110000 -0.001963
0.120000 -0.002630
0.130000 -0.002978
0.140000 -0.002965
0.150000 -0.002592
0.160000 -0.001907
0.170000 -0.000991
0.180000 0.000043
0.190000 0.001068
0.200000 0.001959
0.210000 0.002606
0.220000 0.002931
0.230000 0.002893
0.240000 0.002499
0.250000 0.001805
0.260000 0.000908
0.270000 -0.000061
0.280000 -0.000946
0.290000 -0.001586
0.300000 -0.001829
0.310000 -0.001544
0.320000 -0.000641
0.330000 0.000922
0.340000 0.003129
0.350000 0.005896
0.360000 0.009068
0.370000 0.012419
0.380000 0.015647
0.390000 0.018378
0.400000 0.020171
0.410000 0.020524
0.420000 0.018891
0.430000 0.014700
0.440000 0.007387
0.450000 -0.003563
0.460000 -0.018565
0.470000 -0.037871
0.480000 -0.061501
0.490000 -0.089174
0.500000 -0.120236
0.510000 -0.153615
0.520000 -0.187779
0.530000 -0.220746
0.540000 -0.250116
0.550000 -0.273155
0.560000 -0.286936
0.570000 -0.288508
0.580000 -0.275123
0.590000 -0.244479
0.600000 -0.194980
0.610000 -0.125984
0.620000 -0.038012
0.630000 0.067092
0.640000 0.186094
0.650000 0.314395
0.660000 0.446173
0.670000 0.574641
0.680000 0.692414
0.690000 0.791969
0.700000 0.866167
0.710000 0.908808
0.720000 0.915166
0.730000 0.882459
0.740000 0.810222
0.750000 0.700521
0.760000 0.557991
0.770000 0.389681
0.780000 0.204697
0.790000 0.013659
0.800000 -0.171994
0.810000 -0.340792
0.820000 -0.482082
0.830000 -0.586838
0.840000 -0.648384
0.850000 -0.662958
0.860000 -0.630056
0.870000 -0.552538
0.880000 -0.436453
0.890000 -0.290604
0.900000 -0.125883
0.910000 0.045582
0.920000 0.211392
0.930000 0.359877
0.940000 0.481039
0.950000 0.567356
0.960000 0.614380
0.970000 0.621064
0.980000 0.589787
0.990000 0.526080
1.000000 0.438070
1.010000 0.335687
1.020000 0.229716
1.030000 0.130777
1.040000 0.048326
1.050000 -0.010222
1.060000 -0.040174
1.070000 -0.039971
1.080000 -0.011295
1.090000 0.041144
1.100000 0.110103
1.110000 0.186562
1.120000 0.260640
1.130000 0.322592
1.140000 0.363794
1.150000 0.377598
1.160000 0.360001
1.170000 0.310028
1.180000 0.229826
1.190000 0.124427
1.200000 0.001234
1.210000 -0.130737
1.220000 -0.261771
1.230000 -0.382434
1.240000 -0.484512
1.250000 -0.561831
1.260000 -0.610843
1.270000 -0.630956
1.280000 -0.624543
1.290000 -0.596654
1.300000 -0.554448
1.310000 -0.506414
1.320000 -0.461461
1.330000 -0.427974
1.340000 -0.412931
1.350000 -0.421182
1.360000 -0.454959
1.370000 -0.513661
1.380000 -0.593951
1.390000 -0.690140
1.400000 -0.794812
1.410000 -0.899635
1.420000 -0.996260
1.430000 -1.077212
1.440000 -1.136680
1.450000 -1.171122
1.460000 -1.179623
1.470000 -1.163955
1.480000 -1.128367
1.490000 -1.079089
1.500000 -1.023638
1.510000 -0.969990
1.520000 -0.925705
1.530000 -0.897113
1.540000 -0.888633
1.550000 -0.902315
1.560000 -0.937639
1.570000 -0.991600
1.580000 -1.059061
1.590000 -1.133341
1.600000 -1.206963
1.610000 -1.272480
1.620000 -1.323298
1.630000 -1.354389
1.640000 -1.362824
1.650000 -1.348078
1.660000 -1.312056
1.670000 -1.258856
1.680000 -1.194286
1.690000 -1.125204
1.700000 -1.058735
1.710000 -1.001478
1.720000 -0.958775
1.730000 -0.934120
1.740000 -0.928790
1.750000 -0.941720
1.760000 -0.969645
1.770000 -1.007482
1.780000 -1.048920
1.790000 -1.087130
1.800000 -1.115542
1.810000 -1.128573
1.820000 -1.122243
1.830000 -1.094605
1.840000 -1.045947
1.850000 -0.978728
1.860000 -0.897286
1.870000 -0.807324
1.880000 -0.715258
1.890000 -0.627477
1.900000 -0.549629
1.910000 -0.485985
1.920000 -0.438970
1.930000 -0.408909
1.940000 -0.394010
1.950000 -0.390590
1.960000 -0.393518
1.970000 -0.396807
1.980000 -0.394316
1.990000 -0.380448
2.000000 -0.350790
2.010000 -0.302607
2.020000 -0.235149
2.030000 -0.149722
2.040000 -0.049526
2.050000 0.060720
2.060000 0.175322
2.070000 0.288262
2.080000 0.393883
2.090000 0.487524
2.100000 0.566031
2.110000 0.628099
2.120000 0.674393
2.130000 0.707442
2.140000 0.731322
2.150000 0.751159
2.160000 0.772524
2.170000 0.800770
2.180000 0.840409
2.190000 0.894583
2.200000 0.964705
2.210000 1.050291
2.220000 1.149024
2.230000 1.257018
2.240000 1.369264
2.250000 1.480208
2.260000 1.584377
2.270000 1.676996
2.280000 1.754522
2.290000 1.815026
2.300000 1.858387
2.310000 1.886280
2.320000 1.901951
2.330000 1.909812
2.340000 1.914912
2.350000 1.922330
2.360000 1.936572
2.370000 1.961044
2.380000 1.997653
2.390000 2.046583
2.400000 2.106279
2.410000 2.173632
2.420000 2.244341
2.430000 2.313411
2.440000 2.375734
2.450000 2.426676
2.460000 2.462601
2.470000 2.481285
2.480000 2.482156
2.490000 2.466341
2.500000 2.436524
2.510000 2.396611
2.520000 2.351270
2.530000 2.305375
2.540000 2.263438
2.550000 2.229088
2.560000 2.204653
2.570000 2.190901
2.580000 2.186968
2.590000 2.190471
2.600000 2.197809
2.610000 2.204592
2.620000 2.206173
2.630000 2.198196
2.640000 2.177115
2.650000 2.140610
2.660000 2.087861
2.670000 2.019643
2.680000 1.938234
2.690000 1.847152
2.700000 1.750744
2.710000 1.653686
2.720000 1.560447
2.730000 1.474778
2.740000 1.399294
2.750000 1.335193
2.760000 1.282135
2.770000 1.238314
2.780000 1.200693
2.790000 1.165387
2.800000 1.128140
2.810000 1.084844
2.820000 1.032037
2.830000 0.967322
2.840000 0.889656
2.850000 0.799481
2.860000 0.698677
2.870000 0.590348
2.880000 0.478463
2.890000 0.367399
2.900000 0.261440
2.910000 0.164285
2.920000 0.078635
2.930000 0.005890
2.940000 -0.053987
2.950000 -0.102450
2.960000 -0.142170
2.970000 -0.176707
2.980000 -0.210070
2.990000 -0.246232
3.000000 -0.288651
3.010000 -0.339858
3.020000 -0.401155
3.030000 -0.472463
3.040000 -0.552329
3.050000 -0.638105
3.060000 -0.726258
3.070000 -0.812791
3.080000 -0.893709
3.090000 -0.965490
3.100000 -1.025493
3.110000 -1.072262
3.120000 -1.105688
3.130000 -1.127013
3.140000 -1.138673
3.150000 -1.144003
3.160000 -1.146839
3.170000 -1.151059
3.180000 -1.160129
3.190000 -1.176697
3.200000 -1.202286
3.210000 -1.237126
3.220000 -1.280136
3.230000 -1.329066
3.240000 -1.380771
3.250000 -1.431596
3.260000 -1.477816
3.270000 -1.516081
3.280000 -1.543814
3.290000 -1.559522
3.300000 -1.562965
3.310000 -1.555188
3.320000 -1.538391
3.330000 -1.515668
3.340000 -1.490645
3.350000 -1.467045
3.360000 -1.448259
3.370000 -1.436946
3.380000 -1.434731
3.390000 -1.442024
3.400000 -1.457979
3.410000 -1.480612
3.420000 -1.507044
3.430000 -1.533854
3.440000 -1.557489
3.450000 -1.574696
3.460000 -1.582903
3.470000 -1.580527
3.480000 -1.567159
3.490000 -1.543608
3.500000 -1.511798
3.510000 -1.474539
3.520000 -1.435186
3.530000 -1.397239
3.540000 -1.363931
3.550000 -1.337839
3.560000 -1.320588
3.570000 -1.312659
3.580000 -1.313338
3.590000 -1.320809
3.600000 -1.332371
3.610000 -1.344765
3.620000 -1.354560
3.630000 -1.358562
3.640000 -1.354190
3.650000 -1.339774
3.660000 -1.314749
3.670000 -1.279712
3.680000 -1.236340
3.690000 -1.187186
3.700000 -1.135360
3.710000 -1.084161
3.720000 -1.036674
3.730000 -0.995404
3.740000 -0.961975
3.750000 -0.936944
3.760000 -0.919732
3.770000 -0.908698
3.780000 -0.901339
3.790000 -0.894591
3.800000 -0.885191
3.810000 -0.870069
3.820000 -0.846710
3.830000 -0.813451
3.840000 -0.769672
3.850000 -0.715866
3.860000 -0.653576
3.870000 -0.585204
3.880000 -0.513725
3.890000 -0.442330
3.900000 -0.374048
3.910000 -0.311388
3.920000 -0.256048
3.930000 -0.208721
3.940000 -0.169024
3.950000 -0.135550
3.960000 -0.106055
3.970000 -0.077729
3.980000 -0.047548
3.990000 -0.012640
4.000000 0.029364
4.010000 0.080039
4.020000 0.139976
4.030000 0.208701
4.040000 0.284733
4.050000 0.365748
4.060000 0.448853
4.070000 0.530922
4.080000 0.608957
4.090000 0.680432
4.100000 0.743582
4.110000 0.797593
4.120000 0.842686
4.130000 0.880067
4.140000 0.911767
4.150000 0.940385
4.160000 0.968754
4.170000 0.999595
4.180000 1.035174
4.190000 1.077025
4.200000 1.125752
4.210000 1.180953
4.220000 1.241258
4.230000 1.304485
4.240000 1.367895
4.250000 1.428507
4.260000 1.483449
4.270000 1.530288
4.280000 1.567307
4.290000 1.593704
4.300000 1.609668
4.310000 1.616350
4.320000 1.615710
4.330000 1.610275
4.340000 1.602827
4.350000 1.596068
4.360000 1.592290
4.370000 1.593100
4.380000 1.599234
4.390000 1.610464
4.400000 1.625637
4.410000 1.642812
4.420000 1.659499
4.430000 1.672966
4.440000 1.680560
4.450000 1.680039
4.460000 1.669834
4.470000 1.649247
4.480000 1.618529
4.490000 1.578858
4.500000 1.532200
4.510000 1.481078
4.520000 1.428277
4.530000 1.376521
4.540000 1.328152
4.550000 1.284868
4.560000 1.247531
4.570000 1.216081
4.580000 1.189556
4.590000 1.166226
4.600000 1.143818
4.610000 1.119799
4.620000 1.091697
4.630000 1.057411
4.640000 1.015470
4.650000 0.965224
4.660000 0.906930
4.670000 0.841731
4.680000 0.771531
4.690000 0.698773
4.700000 0.626160
4.710000 0.556344
4.720000 0.491619
4.730000 0.433661
4.740000 0.383346
4.750000 0.340655
4.760000 0.304695
4.770000 0.273821
4.780000 0.245850
4.790000 0.218328
4.800000 0.188844
4.810000 0.155323
4.820000 0.116286
4.830000 0.071030
4.840000 0.019721
4.850000 -0.036624
4.860000 -0.096255
4.870000 -0.156894
4.880000 -0.216004
4.890000 -0.271090
4.900000 -0.319991
4.910000 -0.361132
4.920000 -0.393709
4.930000 -0.417776
4.940000 -0.434233
4.950000 -0.444709
4.960000 -0.451364
4.970000 -0.456626
4.980000 -0.462896
4.990000 -0.472257
5.000000 -0.486230
5.010000 -0.505591
5.020000 -0.530280
5.030000 -0.559413
5.040000 -0.591395
5.050000 -0.624114
5.060000 -0.655196
5.070000 -0.682298
5.080000 -0.703387
5.090000 -0.716988
5.100000 -0.722361
5.110000 -0.719592
5.120000 -0.709579
5.130000 -0.693932
5.140000 -0.674774
5.150000 -0.654494
5.160000 -0.635462
5.170000 -0.619751
5.180000 -0.608892
5.190000 -0.603703
5.200000 -0.604196
5.210000 -0.609587
5.220000 -0.618396
5.230000 -0.628640
5.240000 -0.638073
5.250000 -0.644471
5.260000 -0.645900
5.270000 -0.640955
5.280000 -0.628940
5.290000 -0.609947
5.300000 -0.584857
5.310000 -0.555237
5.320000 -0.523155
5.330000 -0.490938
5.340000 -0.460902
5.350000 -0.435082
5.360000 -0.414991
5.370000 -0.401456
5.380000 -0.394524
5.390000 -0.393470
5.400000 -0.396894
5.410000 -0.402900
5.420000 -0.409332
5.430000 -0.414043
5.440000 -0.415160
5.450000 -0.411316
5.460000 -0.401815
5.470000 -0.386726
5.480000 -0.366875
5.490000 -0.343747
5.500000 -0.319317
5.510000 -0.295810
5.520000 -0.275442
5.530000 -0.260156
5.540000 -0.251396
5.550000 -0.249939
5.560000 -0.255806
5.570000 -0.268268
5.580000 -0.285935
5.590000 -0.306932
5.600000 -0.329125
5.610000 -0.350378
5.620000 -0.368815
5.630000 -0.383038
5.640000 -0.392297
5.650000 -0.396575
5.660000 -0.396584
5.670000 -0.393675
5.680000 -0.389672
5.690000 -0.386642
5.700000 -0.386647
5.710000 -0.391486
5.720000 -0.402478
5.730000 -0.420295
5.740000 -0.444880
5.750000 -0.475449
5.760000 -0.510575
5.770000 -0.548361
5.780000 -0.586655
5.790000 -0.623302
5.800000 -0.656393
5.810000 -0.684486
5.820000 -0.706761
5.830000 -0.723111
5.840000 -0.734137
5.850000 -0.741066
5.860000 -0.745584
5.870000 -0.749622
5.880000 -0.755110
5.890000 -0.763735
5.900000 -0.776721
5.910000 -0.794677
5.920000 -0.817509
5.930000 -0.844423
5.940000 -0.874012
5.950000 -0.904412
5.960000 -0.933519
5.970000 -0.959229
5.980000 -0.979683
5.990000 -0.993474
6.000000 -0.999808
6.010000 -0.998586
6.020000 -0.990401
6.030000 -0.976462
6.040000 -0.958431
6.050000 -0.938215
6.060000 -0.917731
6.070000 -0.898668
6.080000 -0.882275
6.090000 -0.869212
6.100000 -0.859467
6.110000 -0.852353
6.120000 -0.846596
6.130000 -0.840483
6.140000 -0.832073
6.150000 -0.819429
6.160000 -0.800854
6.170000 -0.775094
6.180000 -0.741492
6.190000 -0.700070
6.200000 -0.651524
6.210000 -0.597150
6.220000 -0.538687
6.230000 -0.478118
6.240000 -0.417436
6.250000 -0.358415
6.260000 -0.302409
6.270000 -0.250196
6.280000 -0.201905
6.290000 -0.157013
6.300000 -0.114421
6.310000 -0.072605
6.320000 -0.029819
6.330000 0.015686
6.340000 0.065428
6.350000 0.120500
6.360000 0.181417
6.370000 0.248046
6.380000 0.319600
6.390000 0.394715
6.400000 0.471606
6.410000 0.548254
6.420000 0.622637
6.430000 0.692953
6.440000 0.757816
6.450000 0.816402
6.460000 0.868531
6.470000 0.914661
6.480000 0.955817
6.490000 0.993446
6.500000 1.029224
6.510000 1.064832
6.520000 1.101744
6.530000 1.141025
6.540000 1.183193
6.550000 1.228144
6.560000 1.275149
6.570000 1.322931
6.580000 1.369810
6.590000 1.413892
6.600000 1.453288
6.610000 1.486332
6.620000 1.511771
6.630000 1.528907
6.640000 1.537673
6.650000 1.538634
6.660000 1.532911
6.670000 1.522041
6.680000 1.507788
6.690000 1.491933
6.700000 1.476053
6.710000 1.461338
6.720000 1.448450
6.730000 1.437447
6.740000 1.427788
6.750000 1.418401
6.760000 1.407824
6.770000 1.394389
6.780000 1.376436
6.790000 1.352520
6.800000 1.321600
6.810000 1.283172
6.820000 1.237343
6.830000 1.184831
6.840000 1.126893
6.850000 1.065182
6.860000 1.001571
6.870000 0.937937
6.880000 0.875958
6.890000 0.816926
6.900000 0.761611
6.910000 0.710193
6.920000 0.662257
6.930000 0.616865
6.940000 0.572694
6.950000 0.528213
6.960000 0.481888
6.970000 0.432388
6.980000 0.378764
6.990000 0.320581
7.000000 0.257987
7.010000 0.191715
7.020000 0.123009
7.030000 0.053489
7.040000 -0.015025
7.050000 -0.080718
7.060000 -0.141985
7.070000 -0.197602
7.080000 -0.246866
7.090000 -0.289659
7.100000 -0.326449
7.110000 -0.358219
7.120000 -0.386338
7.130000 -0.412383
7.140000 -0.437939
7.150000 -0.464399
7.160000 -0.492791
7.170000 -0.523648
7.180000 -0.556942
7.190000 -0.592080
7.200000 -0.627979
7.210000 -0.663195
7.220000 -0.696093
7.230000 -0.725050
7.240000 -0.748650
7.250000 -0.765853
7.260000 -0.776124
7.270000 -0.779502
7.280000 -0.776593
7.290000 -0.768507
7.300000 -0.756722
7.310000 -0.742918
7.320000 -0.728775
7.330000 -0.715786
7.340000 -0.705081
7.350000 -0.697304
7.360000 -0.692545
7.370000 -0.690346
7.380000 -0.689761
7.390000 -0.689493
7.400000 -0.688053
7.410000 -0.683961
7.420000 -0.675932
7.430000 -0.663044
7.440000 -0.644860
7.450000 -0.621495
7.460000 -0.593609
7.470000 -0.562343
7.480000 -0.529189
7.490000 -0.495824
7.500000 -0.463918
7.510000 -0.434946
7.520000 -0.410024
7.530000 -0.389781
7.540000 -0.374305
7.550000 -0.363137
7.560000 -0.355343
7.570000 -0.349637
7.580000 -0.344546
7.590000 -0.338599
7.600000 -0.330512
7.610000 -0.319351
7.620000 -0.304652
7.630000 -0.286481
7.640000 -0.265432
7.650000 -0.242561
7.660000 -0.219261
7.670000 -0.197098
7.680000 -0.177627
7.690000 -0.162205
7.700000 -0.151837
7.710000 -0.147050
7.720000 -0.147840
7.730000 -0.153669
7.740000 -0.163538
7.750000 -0.176106
7.760000 -0.189849
7.770000 -0.203251
7.780000 -0.214979
7.790000 -0.224044
7.800000 -0.229919
7.810000 -0.232592
7.820000 -0.232569
7.830000 -0.230806
7.840000 -0.228588
7.850000 -0.227366
7.860000 -0.228581
7.870000 -0.233482
7.880000 -0.242973
7.890000 -0.257496
7.900000 -0.276974
7.910000 -0.300818
7.920000 -0.327990
7.930000 -0.357123
7.940000 -0.386682
7.950000 -0.415143
7.960000 -0.441166
7.970000 -0.463754
7.980000 -0.482361
7.990000 -0.496952
8.000000 -0.507997
8.010000 -0.516406
8.020000 -0.523411
8.030000 -0.530407
8.040000 -0.538778
8.050000 -0.549722
8.060000 -0.564099
8.070000 -0.582320
8.080000 -0.604293
8.090000 -0.629429
8.100000 -0.656703
8.110000 -0.684777
8.120000 -0.712152
8.130000 -0.737342
8.140000 -0.759052
8.150000 -0.776319
8.160000 -0.788628
8.170000 -0.795960
8.180000 -0.798794
8.190000 -0.798036
8.200000 -0.794903
8.210000 -0.790774
8.220000 -0.787011
8.230000 -0.784796
8.240000 -0.784976
8.250000 -0.787963
8.260000 -0.793678
8.270000 -0.801557
8.280000 -0.810616
8.290000 -0.819565
8.300000 -0.826964
8.310000 -0.831391
8.320000 -0.831610
8.330000 -0.826718
8.340000 -0.816247
8.350000 -0.800218
8.360000 -0.779138
8.370000 -0.753929
8.380000 -0.725819
8.390000 -0.696186
8.400000 -0.666397
8.410000 -0.637634
8.420000 -0.610760
8.430000 -0.586206
8.440000 -0.563928
8.450000 -0.543410
8.460000 -0.523730
8.470000 -0.503672
8.480000 -0.481879
8.490000 -0.457016
8.500000 -0.427934
8.510000 -0.393814
8.520000 -0.354266
8.530000 -0.309380
8.540000 -0.259721
8.550000 -0.206258
8.560000 -0.150259
8.570000 -0.093140
8.580000 -0.036298
8.590000 0.019046
8.600000 0.071990
8.610000 0.122049
8.620000 0.169203
8.630000 0.213893
8.640000 0.256953
8.650000 0.299498
8.660000 0.342783
8.670000 0.388033
8.680000 0.436291
8.690000 0.488274
8.700000 0.544280
8.710000 0.604139
8.720000 0.667220
8.730000 0.732497
8.740000 0.798661
8.750000 0.864264
8.760000 0.927878
8.770000 0.988259
8.780000 1.044476
8.790000 1.096013
8.800000 1.142813
8.810000 1.185271
8.820000 1.224170
8.830000 1.260569
8.840000 1.295665
8.850000 1.330629
8.860000 1.366455
8.870000 1.403822
8.880000 1.443006
8.890000 1.483827
8.900000 1.525667
8.910000 1.567528
8.920000 1.608145
8.930000 1.646127
8.940000 1.680117
8.950000 1.708943
8.960000 1.731752
8.970000 1.748103
8.980000 1.758013
8.990000 1.761945
9.000000 1.760745
9.010000 1.755537
9.020000 1.747578
9.030000 1.738103
9.040000 1.728176
9.050000 1.718559
9.060000 1.709619
9.070000 1.701286
9.080000 1.693063
9.090000 1.684091
9.100000 1.673254
9.110000 1.659322
9.120000 1.641100
9.130000 1.617584
9.140000 1.588084
9.150000 1.552315
9.160000 1.510441
9.170000 1.463062
9.180000 1.411149
9.190000 1.355939
9.200000 1.298795
9.210000 1.241054
9.220000 1.183877
9.230000 1.128124
9.240000 1.074264
9.250000 1.022332
9.260000 0.971945
9.270000 0.922359
9.280000 0.872579
9.290000 0.821492
9.300000 0.768021
9.310000 0.711270
9.320000 0.650643
9.330000 0.585939
9.340000 0.517386
9.350000 0.445627
9.360000 0.371663
9.370000 0.296739
9.380000 0.222214
9.390000 0.149407
9.400000 0.079456
9.410000 0.013191
9.420000 -0.048949
9.430000 -0.106956
9.440000 -0.161242
9.450000 -0.212573
9.460000 -0.261968
9.470000 -0.310560
9.480000 -0.359454
9.490000 -0.409579
9.500000 -0.461572
9.510000 -0.515688
9.520000 -0.571769
9.530000 -0.629253
9.540000 -0.687238
9.550000 -0.744585
9.560000 -0.800056
9.570000 -0.852454
9.580000 -0.900769
9.590000 -0.944292
9.600000 -0.982703
9.610000 -1.016104
9.620000 -1.045005
9.630000 -1.070263
9.640000 -1.092974
9.650000 -1.114344
9.660000 -1.135545
9.670000 -1.157568
9.680000 -1.181115
9.690000 -1.206509
9.700000 -1.233664
9.710000 -1.262096
9.720000 -1.290986
9.730000 -1.319282
9.740000 -1.345834
9.750000 -1.369531
9.760000 -1.389442
9.770000 -1.404934
9.780000 -1.415745
9.790000 -1.422024
9.800000 -1.424314
9.810000 -1.423489
9.820000 -1.420649
9.830000 -1.416996
9.840000 -1.413685
9.850000 -1.411691
9.860000 -1.411694
9.870000 -1.414003
9.880000 -1.418518
9.890000 -1.424746
9.900000 -1.431869
9.910000 -1.438840
9.920000 -1.444513
9.930000 -1.447786
9.940000 -1.447735
9.950000 -1.443722
9.960000 -1.435481
9.970000 -1.423142
9.980000 -1.407219
9.990000 -1.388549
10.000000 -1.368187
10.010000 -1.347281
10.020000 -1.326931
10.030000 -1.308059
10.040000 -1.291296
10.050000 -1.276906
10.060000 -1.264757
10.070000 -1.254334
10.080000 -1.244807
10.090000 -1.235124
10.100000 -1.224149
10.110000 -1.210789
10.120000 -1.194132
10.130000 -1.173553
10.140000 -1.148794
10.150000 -1.119987
10.160000 -1.087644
10.170000 -1.052590
10.180000 -1.015865
10.190000 -0.978597
10.200000 -0.941867
10.210000 -0.906579
10.220000 -0.873352
10.230000 -0.842447
10.240000 -0.813735
10.250000 -0.786721
10.260000 -0.760598
10.270000 -0.734355
10.280000 -0.706894
10.290000 -0.677172
10.300000 -0.644325
10.310000 -0.607774
10.320000 -0.567301
10.330000 -0.523074
10.340000 -0.475629
10.350000 -0.425809
10.360000 -0.374665
10.370000 -0.323331
10.380000 -0.272890
10.390000 -0.224249
10.400000 -0.178035
10.410000 -0.134519
10.420000 -0.093593
10.430000 -0.054789
10.440000 -0.017338
10.450000 0.019729
10.460000 0.057462
10.470000 0.096853
10.480000 0.138717
10.490000 0.183587
10.500000 0.231644
10.510000 0.282689
10.520000 0.336166
10.530000 0.391222
10.540000 0.446804
10.550000 0.501782
10.560000 0.555081
10.570000 0.605803
10.580000 0.653330
10.590000 0.697391
10.600000 0.738089
10.610000 0.775882
10.620000 0.811517
10.630000 0.845939
10.640000 0.880164
10.650000 0.915153
10.660000 0.951689
10.670000 0.990276
