# r(A)  G(r)
0.000000 0.000000
0.010000 -0.005130
0.020000 -0.010315
0.030000 -0.015601
0.040000 -0.021023
0.050000 -0.026602
0.060000 -0.032335
0.070000 -0.038204
0.080000 -0.044174
0.090000 -0.050196
0.100000 -0.056217
0.110000 -0.062182
0.120000 -0.068044
0.130000 -0.073768
0.140000 -0.079337
0.150000 -0.084751
0.160000 -0.090030
0.170000 -0.095210
0.180000 -0.100339
0.190000 -0.105471
0.200000 -0.110660
0.210000 -0.115954
0.220000 -0.121385
0.230000 -0.126973
0.240000 -0.132715
0.250000 -0.138592
0.260000 -0.144566
0.270000 -0.150590
0.280000 -0.156609
0.290000 -0.162569
0.300000 -0.168424
0.310000 -0.174140
0.320000 -0.179700
0.330000 -0.185106
0.340000 -0.190378
0.350000 -0.195554
0.360000 -0.200682
0.370000 -0.205816
0.380000 -0.211010
0.390000 -0.216311
0.400000 -0.221752
0.410000 -0.227350
0.420000 -0.233101
0.430000 -0.238985
0.440000 -0.244964
0.450000 -0.250990
0.460000 -0.257007
0.470000 -0.262963
0.480000 -0.268811
0.490000 -0.274518
0.500000 -0.280069
0.510000 -0.285467
0.520000 -0.290733
0.530000 -0.295905
0.540000 -0.301032
0.550000 -0.306169
0.560000 -0.311369
0.570000 -0.316678
0.580000 -0.322128
0.590000 -0.327735
0.600000 -0.333496
0.610000 -0.339387
0.620000 -0.345371
0.630000 -0.351398
0.640000 -0.357414
0.650000 -0.363365
0.660000 -0.369206
0.670000 -0.374905
0.680000 -0.380448
0.690000 -0.385837
0.700000 -0.391097
0.710000 -0.396266
0.720000 -0.401392
0.730000 -0.406532
0.740000 -0.411738
0.750000 -0.417056
0.760000 -0.422516
0.770000 -0.428133
0.780000 -0.433903
0.790000 -0.439801
0.800000 -0.445790
0.810000 -0.451819
0.820000 -0.457833
0.830000 -0.463780
0.840000 -0.469614
0.850000 -0.475305
0.860000 -0.480839
0.870000 -0.486221
0.880000 -0.491475
0.890000 -0.496640
0.900000 -0.501767
0.910000 -0.506910
0.920000 -0.512123
0.930000 -0.517448
0.940000 -0.522918
0.950000 -0.528546
0.960000 -0.534325
0.970000 -0.540231
0.980000 -0.546224
0.990000 -0.552255
1.000000 -0.558267
1.010000 -0.564210
1.020000 -0.570037
1.030000 -0.575720
1.040000 -0.581246
1.050000 -0.586620
1.060000 -0.591869
1.070000 -0.597032
1.080000 -0.602159
1.090000 -0.607305
1.100000 -0.612524
1.110000 -0.617858
1.120000 -0.623338
1.130000 -0.628975
1.140000 -0.634762
1.150000 -0.640674
1.160000 -0.646671
1.170000 -0.652702
1.180000 -0.658711
1.190000 -0.664647
1.200000 -0.670466
1.210000 -0.676139
1.220000 -0.681654
1.230000 -0.687019
1.240000 -0.692259
1.250000 -0.697417
1.260000 -0.702541
1.270000 -0.707689
1.280000 -0.712910
1.290000 -0.718250
1.300000 -0.723735
1.310000 -0.729378
1.320000 -0.735169
1.330000 -0.741083
1.340000 -0.747078
1.350000 -0.753102
1.360000 -0.759101
1.370000 -0.765022
1.380000 -0.770823
1.390000 -0.776475
1.400000 -0.781968
1.410000 -0.787310
1.420000 -0.792528
1.430000 -0.797663
1.440000 -0.802767
1.450000 -0.807894
1.460000 -0.813096
1.470000 -0.818415
1.480000 -0.823877
1.490000 -0.829494
1.500000 -0.835254
1.510000 -0.841130
1.520000 -0.847079
1.530000 -0.853050
1.540000 -0.858987
1.550000 -0.864836
1.560000 -0.870557
1.570000 -0.876119
1.580000 -0.881515
1.590000 -0.886751
1.600000 -0.891856
1.610000 -0.896870
1.620000 -0.901844
1.630000 -0.906832
1.640000 -0.911884
1.650000 -0.917040
1.660000 -0.922326
1.670000 -0.927747
1.680000 -0.933293
1.690000 -0.938933
1.700000 -0.944621
1.710000 -0.950305
1.720000 -0.955925
1.730000 -0.961429
1.740000 -0.966772
1.750000 -0.971925
1.760000 -0.976876
1.770000 -0.981634
1.780000 -0.986223
1.790000 -0.990683
1.800000 -0.995061
1.810000 -0.999409
1.820000 -1.003773
1.830000 -1.008188
1.840000 -1.012676
1.850000 -1.017239
1.860000 -1.021858
1.870000 -1.026500
1.880000 -1.031114
1.890000 -1.035640
1.900000 -1.040018
1.910000 -1.044188
1.920000 -1.048103
1.930000 -1.051729
1.940000 -1.055049
1.950000 -1.058069
1.960000 -1.060807
1.970000 -1.063298
1.980000 -1.065585
1.990000 -1.067711
2.000000 -1.069717
2.010000 -1.071631
2.020000 -1.073466
2.030000 -1.075216
2.040000 -1.076857
2.050000 -1.078344
2.060000 -1.079621
2.070000 -1.080621
2.080000 -1.081275
2.090000 -1.081518
2.100000 -1.081295
2.110000 -1.080567
2.120000 -1.079312
2.130000 -1.077528
2.140000 -1.075229
2.150000 -1.072444
2.160000 -1.069209
2.170000 -1.065561
2.180000 -1.061534
2.190000 -1.057150
2.200000 -1.052415
2.210000 -1.047319
2.220000 -1.041828
2.230000 -1.035896
2.240000 -1.029460
2.250000 -1.022450
2.260000 -1.014793
2.270000 -1.006424
2.280000 -0.997287
2.290000 -0.987342
2.300000 -0.976568
2.310000 -0.964965
2.320000 -0.952549
2.330000 -0.939351
2.340000 -0.925410
2.350000 -0.910768
2.360000 -0.895462
2.370000 -0.879518
2.380000 -0.862950
2.390000 -0.845750
2.400000 -0.827894
2.410000 -0.809344
2.420000 -0.790046
2.430000 -0.769941
2.440000 -0.748969
2.450000 -0.727079
2.460000 -0.704229
2.470000 -0.680396
2.480000 -0.655577
2.490000 -0.629789
2.500000 -0.603069
2.510000 -0.575467
2.520000 -0.547043
2.530000 -0.517859
2.540000 -0.487974
2.550000 -0.457436
2.560000 -0.426280
2.570000 -0.394524
2.580000 -0.362167
2.590000 -0.329193
2.600000 -0.295575
2.610000 -0.261281
2.620000 -0.226278
2.630000 -0.190540
2.640000 -0.154056
2.650000 -0.116831
2.660000 -0.078892
2.670000 -0.040283
2.680000 -0.001071
2.690000 0.038667
2.700000 0.078842
2.710000 0.119365
2.720000 0.160152
2.730000 0.201128
2.740000 0.242233
2.750000 0.283428
2.760000 0.324687
2.770000 0.366005
2.780000 0.407386
2.790000 0.448841
2.800000 0.490381
2.810000 0.532012
2.820000 0.573724
2.830000 0.615494
2.840000 0.657279
2.850000 0.699015
2.860000 0.740622
2.870000 0.782009
2.880000 0.823075
2.890000 0.863721
2.900000 0.903854
2.910000 0.943392
2.920000 0.982272
2.930000 1.020448
2.940000 1.057895
2.950000 1.094603
2.960000 1.130578
2.970000 1.165831
2.980000 1.200375
2.990000 1.234217
3.000000 1.267352
3.010000 1.299761
3.020000 1.331405
3.030000 1.362227
3.040000 1.392157
3.050000 1.421109
3.060000 1.448996
3.070000 1.475728
3.080000 1.501227
3.090000 1.525424
3.100000 1.548271
3.110000 1.569738
3.120000 1.589816
3.130000 1.608513
3.140000 1.625852
3.150000 1.641861
3.160000 1.656571
3.170000 1.670007
3.180000 1.682181
3.190000 1.693093
3.200000 1.702723
3.210000 1.711033
3.220000 1.717971
3.230000 1.723473
3.240000 1.727473
3.250000 1.729904
3.260000 1.730708
3.270000 1.729841
3.280000 1.727279
3.290000 1.723016
3.300000 1.717067
3.310000 1.709466
3.320000 1.700259
3.330000 1.689500
3.340000 1.677245
3.350000 1.663543
3.360000 1.648433
3.370000 1.631938
3.380000 1.614064
3.390000 1.594800
3.400000 1.574119
3.410000 1.551988
3.420000 1.528366
3.430000 1.503216
3.440000 1.476510
3.450000 1.448236
3.460000 1.418399
3.470000 1.387026
3.480000 1.354164
3.490000 1.319879
3.500000 1.284250
3.510000 1.247362
3.520000 1.209303
3.530000 1.170153
3.540000 1.129984
3.550000 1.088848
3.560000 1.046784
3.570000 1.003812
3.580000 0.959936
3.590000 0.915155
3.600000 0.869458
3.610000 0.822841
3.620000 0.775308
3.630000 0.726877
3.640000 0.677584
3.650000 0.627488
3.660000 0.576664
3.670000 0.525207
3.680000 0.473222
3.690000 0.420821
3.700000 0.368116
3.710000 0.315210
3.720000 0.262196
3.730000 0.209148
3.740000 0.156120
3.750000 0.103152
3.760000 0.050263
3.770000 -0.002534
3.780000 -0.055234
3.790000 -0.107831
3.800000 -0.160308
3.810000 -0.212638
3.820000 -0.264776
3.830000 -0.316657
3.840000 -0.368200
3.850000 -0.419308
3.860000 -0.469873
3.870000 -0.519785
3.880000 -0.568934
3.890000 -0.617222
3.900000 -0.664564
3.910000 -0.710893
3.920000 -0.756164
3.930000 -0.800352
3.940000 -0.843445
3.950000 -0.885449
3.960000 -0.926370
3.970000 -0.966217
3.980000 -1.004992
3.990000 -1.042683
4.000000 -1.079262
4.010000 -1.114685
4.020000 -1.148889
4.030000 -1.181798
4.040000 -1.213328
4.050000 -1.243390
4.060000 -1.271900
4.070000 -1.298784
4.080000 -1.323983
4.090000 -1.347459
4.100000 -1.369193
4.110000 -1.389187
4.120000 -1.407458
4.130000 -1.424040
4.140000 -1.438967
4.150000 -1.452277
4.160000 -1.463998
4.170000 -1.474148
4.180000 -1.482728
4.190000 -1.489721
4.200000 -1.495094
4.210000 -1.498801
4.220000 -1.500788
4.230000 -1.500998
4.240000 -1.499379
4.250000 -1.495889
4.260000 -1.490503
4.270000 -1.483217
4.280000 -1.474046
4.290000 -1.463028
4.300000 -1.450217
4.310000 -1.435679
4.320000 -1.419486
4.330000 -1.401711
4.340000 -1.382420
4.350000 -1.361666
4.360000 -1.339486
4.370000 -1.315903
4.380000 -1.290921
4.390000 -1.264534
4.400000 -1.236728
4.410000 -1.207487
4.420000 -1.176801
4.430000 -1.144671
4.440000 -1.111118
4.450000 -1.076180
4.460000 -1.039919
4.470000 -1.002416
4.480000 -0.963770
4.490000 -0.924093
4.500000 -0.883501
4.510000 -0.842111
4.520000 -0.800031
4.530000 -0.757358
4.540000 -0.714171
4.550000 -0.670534
4.560000 -0.626492
4.570000 -0.582080
4.580000 -0.537321
4.590000 -0.492239
4.600000 -0.446862
4.610000 -0.401227
4.620000 -0.355387
4.630000 -0.309416
4.640000 -0.263404
4.650000 -0.217461
4.660000 -0.171712
4.670000 -0.126289
4.680000 -0.081330
4.690000 -0.036965
4.700000 0.006686
4.710000 0.049517
4.720000 0.091445
4.730000 0.132406
4.740000 0.172356
4.750000 0.211269
4.760000 0.249131
4.770000 0.285932
4.780000 0.321663
4.790000 0.356307
4.800000 0.389837
4.810000 0.422211
4.820000 0.453371
4.830000 0.483246
4.840000 0.511756
4.850000 0.538813
4.860000 0.564336
4.870000 0.588248
4.880000 0.610490
4.890000 0.631023
4.900000 0.649830
4.910000 0.666921
4.920000 0.682326
4.930000 0.696098
4.940000 0.708300
4.950000 0.719008
4.960000 0.728294
4.970000 0.736229
4.980000 0.742872
4.990000 0.748268
5.000000 0.752450
5.010000 0.755435
5.020000 0.757234
5.030000 0.757851
5.040000 0.757292
5.050000 0.755575
5.060000 0.752727
5.070000 0.748797
5.080000 0.743856
5.090000 0.737996
5.100000 0.731330
5.110000 0.723987
5.120000 0.716106
5.130000 0.707831
5.140000 0.699302
5.150000 0.690649
5.160000 0.681988
5.170000 0.673415
5.180000 0.665009
5.190000 0.656829
5.200000 0.648920
5.210000 0.641317
5.220000 0.634051
5.230000 0.627156
5.240000 0.620675
5.250000 0.614662
5.260000 0.609189
5.270000 0.604342
5.280000 0.600221
5.290000 0.596936
5.300000 0.594601
5.310000 0.593325
5.320000 0.593210
5.330000 0.594340
5.340000 0.596779
5.350000 0.600566
5.360000 0.605715
5.370000 0.612217
5.380000 0.620043
5.390000 0.629151
5.400000 0.639490
5.410000 0.651008
5.420000 0.663658
5.430000 0.677404
5.440000 0.692220
5.450000 0.708093
5.460000 0.725025
5.470000 0.743020
5.480000 0.762089
5.490000 0.782234
5.500000 0.803449
5.510000 0.825710
5.520000 0.848973
5.530000 0.873169
5.540000 0.898206
5.550000 0.923970
5.560000 0.950330
5.570000 0.977141
5.580000 1.004258
5.590000 1.031535
5.600000 1.058834
5.610000 1.086033
5.620000 1.113027
5.630000 1.139726
5.640000 1.166056
5.650000 1.191958
5.660000 1.217378
5.670000 1.242262
5.680000 1.266552
5.690000 1.290178
5.700000 1.313055
5.710000 1.335082
5.720000 1.356137
5.730000 1.376088
5.740000 1.394787
5.750000 1.412086
5.760000 1.427837
5.770000 1.441902
5.780000 1.454159
5.790000 1.464505
5.800000 1.472863
5.810000 1.479175
5.820000 1.483411
5.830000 1.485553
5.840000 1.485600
5.850000 1.483554
5.860000 1.479419
5.870000 1.473189
5.880000 1.464852
5.890000 1.454380
5.900000 1.441733
5.910000 1.426860
5.920000 1.409703
5.930000 1.390203
5.940000 1.368309
5.950000 1.343979
5.960000 1.317192
5.970000 1.287948
5.980000 1.256271
5.990000 1.222212
6.000000 1.185844
6.010000 1.147256
6.020000 1.106551
6.030000 1.063837
6.040000 1.019221
6.050000 0.972800
6.060000 0.924662
6.070000 0.874878
6.080000 0.823506
6.090000 0.770588
6.100000 0.716161
6.110000 0.660256
6.120000 0.602907
6.130000 0.544159
6.140000 0.484070
6.150000 0.422717
6.160000 0.360200
6.170000 0.296637
6.180000 0.232165
6.190000 0.166934
6.200000 0.101101
6.210000 0.034823
6.220000 -0.031751
6.230000 -0.098481
6.240000 -0.165250
6.250000 -0.231955
6.260000 -0.298517
6.270000 -0.364874
6.280000 -0.430977
6.290000 -0.496784
6.300000 -0.562257
6.310000 -0.627351
6.320000 -0.692012
6.330000 -0.756170
6.340000 -0.819741
6.350000 -0.882623
6.360000 -0.944700
6.370000 -1.005850
6.380000 -1.065945
6.390000 -1.124864
6.400000 -1.182495
6.410000 -1.238743
6.420000 -1.293532
6.430000 -1.346811
6.440000 -1.398551
6.450000 -1.448742
6.460000 -1.497391
6.470000 -1.544513
6.480000 -1.590127
6.490000 -1.634248
6.500000 -1.676882
6.510000 -1.718019
6.520000 -1.757635
6.530000 -1.795692
6.540000 -1.832136
6.550000 -1.866908
6.560000 -1.899942
6.570000 -1.931179
6.580000 -1.960571
6.590000 -1.988084
6.600000 -2.013704
6.610000 -2.037439
6.620000 -2.059318
6.630000 -2.079388
6.640000 -2.097709
6.650000 -2.114350
6.660000 -2.129377
6.670000 -2.142853
6.680000 -2.154827
6.690000 -2.165331
6.700000 -2.174380
6.710000 -2.181971
6.720000 -2.188084
6.730000 -2.192690
6.740000 -2.195752
6.750000 -2.197238
6.760000 -2.197121
6.770000 -2.195389
6.780000 -2.192046
6.790000 -2.187113
6.800000 -2.180634
6.810000 -2.172662
6.820000 -2.163265
6.830000 -2.152512
6.840000 -2.140472
6.850000 -2.127202
6.860000 -2.112745
6.870000 -2.097126
6.880000 -2.080349
6.890000 -2.062399
6.900000 -2.043241
6.910000 -2.022831
6.920000 -2.001117
6.930000 -1.978048
6.940000 -1.953580
6.950000 -1.927683
6.960000 -1.900341
6.970000 -1.871559
6.980000 -1.841358
6.990000 -1.809775
7.000000 -1.776856
7.010000 -1.742652
7.020000 -1.707212
7.030000 -1.670575
7.040000 -1.632768
7.050000 -1.593798
7.060000 -1.553655
7.070000 -1.512311
7.080000 -1.469721
7.090000 -1.425833
7.100000 -1.380590
7.110000 -1.333939
7.120000 -1.285837
7.130000 -1.236258
7.140000 -1.185195
7.150000 -1.132663
7.160000 -1.078696
7.170000 -1.023349
7.180000 -0.966688
7.190000 -0.908788
7.200000 -0.849723
7.210000 -0.789563
7.220000 -0.728366
7.230000 -0.666176
7.240000 -0.603023
7.250000 -0.538919
7.260000 -0.473868
7.270000 -0.407866
7.280000 -0.340909
7.290000 -0.273000
7.300000 -0.204155
7.310000 -0.134409
7.320000 -0.063818
7.330000 0.007538
7.340000 0.079557
7.350000 0.152116
7.360000 0.225080
7.370000 0.298307
7.380000 0.371652
7.390000 0.444979
7.400000 0.518160
7.410000 0.591085
7.420000 0.663659
7.430000 0.735803
7.440000 0.807454
7.450000 0.878552
7.460000 0.949043
7.470000 1.018869
7.480000 1.087959
7.490000 1.156229
7.500000 1.223576
7.510000 1.289878
7.520000 1.354996
7.530000 1.418777
7.540000 1.481058
7.550000 1.541677
7.560000 1.600475
7.570000 1.657307
7.580000 1.712044
7.590000 1.764582
7.600000 1.814836
7.610000 1.862747
7.620000 1.908274
7.630000 1.951389
7.640000 1.992076
7.650000 2.030319
7.660000 2.066097
7.670000 2.099383
7.680000 2.130136
7.690000 2.158304
7.700000 2.183821
7.710000 2.206617
7.720000 2.226616
7.730000 2.243749
7.740000 2.257956
7.750000 2.269196
7.760000 2.277450
7.770000 2.282725
7.780000 2.285054
7.790000 2.284497
7.800000 2.281134
7.810000 2.275064
7.820000 2.266394
7.830000 2.255235
7.840000 2.241694
7.850000 2.225871
7.860000 2.207852
7.870000 2.187709
7.880000 2.165503
7.890000 2.141286
7.900000 2.115105
7.910000 2.087009
7.920000 2.057054
7.930000 2.025312
7.940000 1.991873
7.950000 1.956847
7.960000 1.920367
7.970000 1.882587
7.980000 1.843674
7.990000 1.803806
8.000000 1.763165
8.010000 1.721928
8.020000 1.680261
8.030000 1.638313
8.040000 1.596214
8.050000 1.554073
8.060000 1.511978
8.070000 1.470000
8.080000 1.428199
8.090000 1.386628
8.100000 1.345341
8.110000 1.304398
8.120000 1.263873
8.130000 1.223849
8.140000 1.184426
8.150000 1.145717
8.160000 1.107842
8.170000 1.070924
8.180000 1.035081
8.190000 1.000424
8.200000 0.967043
8.210000 0.935008
8.220000 0.904362
8.230000 0.875124
8.240000 0.847288
8.250000 0.820828
8.260000 0.795703
8.270000 0.771864
8.280000 0.749260
8.290000 0.727845
8.300000 0.707584
8.310000 0.688455
8.320000 0.670448
8.330000 0.653568
8.340000 0.637828
8.350000 0.623242
8.360000 0.609825
8.370000 0.597581
8.380000 0.586498
8.390000 0.576547
8.400000 0.567674
8.410000 0.559805
8.420000 0.552843
8.430000 0.546679
8.440000 0.541190
8.450000 0.536252
8.460000 0.531744
8.470000 0.527555
8.480000 0.523592
8.490000 0.519776
8.500000 0.516051
8.510000 0.512377
8.520000 0.508728
8.530000 0.505087
8.540000 0.501440
8.550000 0.497767
8.560000 0.494040
8.570000 0.490214
8.580000 0.486229
8.590000 0.482006
8.600000 0.477453
8.610000 0.472464
8.620000 0.466930
8.630000 0.460742
8.640000 0.453800
8.650000 0.446019
8.660000 0.437331
8.670000 0.427691
8.680000 0.417078
8.690000 0.405488
8.700000 0.392936
8.710000 0.379445
8.720000 0.365043
8.730000 0.349757
8.740000 0.333600
8.750000 0.316578
8.760000 0.298675
8.770000 0.279861
8.780000 0.260092
8.790000 0.239312
8.800000 0.217461
8.810000 0.194481
8.820000 0.170321
8.830000 0.144947
8.840000 0.118341
8.850000 0.090508
8.860000 0.061474
8.870000 0.031285
8.880000 0.000000
8.890000 -0.032311
8.900000 -0.065576
8.910000 -0.099727
8.920000 -0.134708
8.930000 -0.170476
8.940000 -0.207007
8.950000 -0.244292
8.960000 -0.282342
8.970000 -0.321174
8.980000 -0.360814
8.990000 -0.401285
9.000000 -0.442604
9.010000 -0.484773
9.020000 -0.527774
9.030000 -0.571571
9.040000 -0.616107
9.050000 -0.661305
9.060000 -0.707076
9.070000 -0.753320
9.080000 -0.799939
9.090000 -0.846837
9.100000 -0.893931
9.110000 -0.941153
9.120000 -0.988454
9.130000 -1.035801
9.140000 -1.083179
9.150000 -1.130581
9.160000 -1.178009
9.170000 -1.225463
9.180000 -1.272932
9.190000 -1.320396
9.200000 -1.367814
9.210000 -1.415125
9.220000 -1.462250
9.230000 -1.509090
9.240000 -1.555535
9.250000 -1.601465
9.260000 -1.646764
9.270000 -1.691318
9.280000 -1.735029
9.290000 -1.777814
9.300000 -1.819610
9.310000 -1.860372
9.320000 -1.900073
9.330000 -1.938697
9.340000 -1.976236
9.350000 -2.012682
9.360000 -2.048018
9.370000 -2.082217
9.380000 -2.115234
9.390000 -2.147008
9.400000 -2.177456
9.410000 -2.206483
9.420000 -2.233980
9.430000 -2.259837
9.440000 -2.283942
9.450000 -2.306195
9.460000 -2.326509
9.470000 -2.344817
9.480000 -2.361073
9.490000 -2.375250
9.500000 -2.387343
9.510000 -2.397359
9.520000 -2.405313
9.530000 -2.411220
9.540000 -2.415094
9.550000 -2.416934
9.560000 -2.416725
9.570000 -2.414437
9.580000 -2.410021
9.590000 -2.403416
9.600000 -2.394551
9.610000 -2.383352
9.620000 -2.369749
9.630000 -2.353685
9.640000 -2.335115
9.650000 -2.314017
9.660000 -2.290391
9.670000 -2.264259
9.680000 -2.235663
9.690000 -2.204657
9.700000 -2.171307
9.710000 -2.135678
9.720000 -2.097832
9.730000 -2.057820
9.740000 -2.015677
9.750000 -1.971424
9.760000 -1.925065
9.770000 -1.876593
9.780000 -1.825989
9.790000 -1.773235
9.800000 -1.718318
9.810000 -1.661235
9.820000 -1.602000
9.830000 -1.540649
9.840000 -1.477241
9.850000 -1.411856
9.860000 -1.344594
9.870000 -1.275571
9.880000 -1.204909
9.890000 -1.132733
9.900000 -1.059162
9.910000 -0.984306
9.920000 -0.908259
9.930000 -0.831098
9.940000 -0.752886
9.950000 -0.673672
9.960000 -0.593497
9.970000 -0.512401
9.980000 -0.430427
9.990000 -0.347630
10.000000 -0.264083
10.010000 -0.179878
10.020000 -0.095128
10.030000 -0.009970
10.040000 0.075445
10.050000 0.160950
10.060000 0.246373
10.070000 0.331542
10.080000 0.416294
10.090000 0.500477
10.100000 0.583958
10.110000 0.666622
10.120000 0.748374
10.130000 0.829132
10.140000 0.908828
10.150000 0.987398
10.160000 1.064775
10.170000 1.140886
10.180000 1.215645
10.190000 1.288949
10.200000 1.360678
10.210000 1.430696
10.220000 1.498852
10.230000 1.564990
10.240000 1.628953
10.250000 1.690587
10.260000 1.749756
10.270000 1.806338
10.280000 1.860238
10.290000 1.911381
10.300000 1.959721
10.310000 2.005229
10.320000 2.047893
10.330000 2.087713
10.340000 2.124689
10.350000 2.158820
10.360000 2.190097
10.370000 2.218499
10.380000 2.243992
10.390000 2.266531
10.400000 2.286060
10.410000 2.302522
10.420000 2.315864
10.430000 2.326040
10.440000 2.333024
10.450000 2.336808
10.460000 2.337414
10.470000 2.334886
10.480000 2.329296
10.490000 2.320737
10.500000 2.309318
10.510000 2.295160
10.520000 2.278385
10.530000 2.259111
10.540000 2.237448
10.550000 2.213492
10.560000 2.187324
10.570000 2.159012
10.580000 2.128611
10.590000 2.096174
10.600000 2.061749
10.610000 2.025396
10.620000 1.987183
10.630000 1.947198
10.640000 1.905550
10.650000 1.862368
10.660000 1.817802
10.670000 1.772016
10.680000 1.725187
10.690000 1.677493
10.700000 1.629110
10.710000 1.580201
10.720000 1.530915
