# r(A)  G(r)
0.000000 0.000000
0.010000 -0.009329
0.020000 -0.018593
0.030000 -0.027735
0.040000 -0.036712
0.050000 -0.045503
0.060000 -0.054107
0.070000 -0.062548
0.080000 -0.070868
0.090000 -0.079125
0.100000 -0.087384
0.110000 -0.095709
0.120000 -0.104159
0.130000 -0.112774
0.140000 -0.121575
0.150000 -0.130563
0.160000 -0.139714
0.170000 -0.148984
0.180000 -0.158315
0.190000 -0.167642
0.200000 -0.176900
0.210000 -0.186034
0.220000 -0.195001
0.230000 -0.203780
0.240000 -0.212374
0.250000 -0.220807
0.260000 -0.229122
0.270000 -0.237377
0.280000 -0.245638
0.290000 -0.253970
0.300000 -0.262429
0.310000 -0.271054
0.320000 -0.279868
0.330000 -0.288867
0.340000 -0.298026
0.350000 -0.307301
0.360000 -0.316634
0.370000 -0.325960
0.380000 -0.335213
0.390000 -0.344338
0.400000 -0.353294
0.410000 -0.362063
0.420000 -0.370647
0.430000 -0.379072
0.440000 -0.387382
0.450000 -0.395636
0.460000 -0.403900
0.470000 -0.412239
0.480000 -0.420707
0.490000 -0.429344
0.500000 -0.438169
0.510000 -0.447179
0.520000 -0.456347
0.530000 -0.465628
0.540000 -0.474963
0.550000 -0.484287
0.560000 -0.493534
0.570000 -0.502651
0.580000 -0.511597
0.590000 -0.520356
0.600000 -0.528930
0.610000 -0.537347
0.620000 -0.545653
0.630000 -0.553906
0.640000 -0.562174
0.650000 -0.570519
0.660000 -0.578997
0.670000 -0.587646
0.680000 -0.596483
0.690000 -0.605504
0.700000 -0.614682
0.710000 -0.623969
0.720000 -0.633306
0.730000 -0.642627
0.740000 -0.651869
0.750000 -0.660977
0.760000 -0.669914
0.770000 -0.678661
0.780000 -0.687224
0.790000 -0.695632
0.800000 -0.703932
0.810000 -0.712183
0.820000 -0.720451
0.830000 -0.728800
0.840000 -0.737284
0.850000 -0.745940
0.860000 -0.754785
0.870000 -0.763812
0.880000 -0.772993
0.890000 -0.782280
0.900000 -0.791613
0.910000 -0.800926
0.920000 -0.810155
0.930000 -0.819248
0.940000 -0.828165
0.950000 -0.836893
0.960000 -0.845437
0.970000 -0.853827
0.980000 -0.862110
0.990000 -0.870347
1.000000 -0.878603
1.010000 -0.886941
1.020000 -0.895415
1.030000 -0.904059
1.040000 -0.912890
1.050000 -0.921898
1.060000 -0.931055
1.070000 -0.940310
1.080000 -0.949603
1.090000 -0.958867
1.100000 -0.968039
1.110000 -0.977065
1.120000 -0.985909
1.130000 -0.994556
1.140000 -1.003012
1.150000 -1.011308
1.160000 -1.019491
1.170000 -1.027622
1.180000 -1.035764
1.190000 -1.043980
1.200000 -1.052320
1.210000 -1.060819
1.220000 -1.069487
1.230000 -1.078314
1.240000 -1.087268
1.250000 -1.096297
1.260000 -1.105336
1.270000 -1.114318
1.280000 -1.123178
1.290000 -1.131859
1.300000 -1.140325
1.310000 -1.148559
1.320000 -1.156567
1.330000 -1.164377
1.340000 -1.172033
1.350000 -1.179593
1.360000 -1.187118
1.370000 -1.194665
1.380000 -1.202280
1.390000 -1.209991
1.400000 -1.217803
1.410000 -1.225700
1.420000 -1.233642
1.430000 -1.241571
1.440000 -1.249416
1.450000 -1.257103
1.460000 -1.264560
1.470000 -1.271727
1.480000 -1.278558
1.490000 -1.285032
1.500000 -1.291146
1.510000 -1.296923
1.520000 -1.302398
1.530000 -1.307621
1.540000 -1.312642
1.550000 -1.317509
1.560000 -1.322255
1.570000 -1.326897
1.580000 -1.331429
1.590000 -1.335820
1.600000 -1.340017
1.610000 -1.343949
1.620000 -1.347534
1.630000 -1.350682
1.640000 -1.353311
1.650000 -1.355346
1.660000 -1.356731
1.670000 -1.357430
1.680000 -1.357429
1.690000 -1.356736
1.700000 -1.355376
1.710000 -1.353381
1.720000 -1.350789
1.730000 -1.347632
1.740000 -1.343929
1.750000 -1.339681
1.760000 -1.334867
1.770000 -1.329440
1.780000 -1.323334
1.790000 -1.316464
1.800000 -1.308733
1.810000 -1.300043
1.820000 -1.290299
1.830000 -1.279416
1.840000 -1.267331
1.850000 -1.254001
1.860000 -1.239405
1.870000 -1.223546
1.880000 -1.206443
1.890000 -1.188127
1.900000 -1.168634
1.910000 -1.147992
1.920000 -1.126222
1.930000 -1.103326
1.940000 -1.079284
1.950000 -1.054057
1.960000 -1.027584
1.970000 -0.999791
1.980000 -0.970594
1.990000 -0.939907
2.000000 -0.907654
2.010000 -0.873773
2.020000 -0.838223
2.030000 -0.800985
2.040000 -0.762071
2.050000 -0.721513
2.060000 -0.679364
2.070000 -0.635691
2.080000 -0.590568
2.090000 -0.544066
2.100000 -0.496246
2.110000 -0.447155
2.120000 -0.396825
2.130000 -0.345263
2.140000 -0.292465
2.150000 -0.238411
2.160000 -0.183076
2.170000 -0.126439
2.180000 -0.068485
2.190000 -0.009220
2.200000 0.051328
2.210000 0.113105
2.220000 0.176029
2.230000 0.239993
2.240000 0.304868
2.250000 0.370513
2.260000 0.436779
2.270000 0.503519
2.280000 0.570596
2.290000 0.637887
2.300000 0.705289
2.310000 0.772717
2.320000 0.840104
2.330000 0.907396
2.340000 0.974547
2.350000 1.041509
2.360000 1.108226
2.370000 1.174627
2.380000 1.240620
2.390000 1.306089
2.400000 1.370895
2.410000 1.434876
2.420000 1.497854
2.430000 1.559643
2.440000 1.620053
2.450000 1.678903
2.460000 1.736025
2.470000 1.791274
2.480000 1.844526
2.490000 1.895685
2.500000 1.944675
2.510000 1.991443
2.520000 2.035944
2.530000 2.078141
2.540000 2.117993
2.550000 2.155452
2.560000 2.190453
2.570000 2.222915
2.580000 2.252737
2.590000 2.279806
2.600000 2.303998
2.610000 2.325187
2.620000 2.343250
2.630000 2.358080
2.640000 2.369589
2.650000 2.377715
2.660000 2.382428
2.670000 2.383726
2.680000 2.381636
2.690000 2.376206
2.700000 2.367504
2.710000 2.355602
2.720000 2.340576
2.730000 2.322495
2.740000 2.301413
2.750000 2.277372
2.760000 2.250398
2.770000 2.220502
2.780000 2.187687
2.790000 2.151956
2.800000 2.113316
2.810000 2.071787
2.820000 2.027413
2.830000 1.980258
2.840000 1.930419
2.850000 1.878019
2.860000 1.823204
2.870000 1.766144
2.880000 1.707019
2.890000 1.646014
2.900000 1.583310
2.910000 1.519075
2.920000 1.453463
2.930000 1.386606
2.940000 1.318614
2.950000 1.249581
2.960000 1.179584
2.970000 1.108696
2.980000 1.036987
2.990000 0.964535
3.000000 0.891434
3.010000 0.817796
3.020000 0.743754
3.030000 0.669461
3.040000 0.595091
3.050000 0.520829
3.060000 0.446864
3.070000 0.373383
3.080000 0.300563
3.090000 0.228561
3.100000 0.157511
3.110000 0.087521
3.120000 0.018669
3.130000 -0.048989
3.140000 -0.115416
3.150000 -0.180589
3.160000 -0.244490
3.170000 -0.307096
3.180000 -0.368378
3.190000 -0.428288
3.200000 -0.486765
3.210000 -0.543726
3.220000 -0.599080
3.230000 -0.652721
3.240000 -0.704546
3.250000 -0.754454
3.260000 -0.802362
3.270000 -0.848204
3.280000 -0.891942
3.290000 -0.933565
3.300000 -0.973092
3.310000 -1.010563
3.320000 -1.046040
3.330000 -1.079597
3.340000 -1.111312
3.350000 -1.141257
3.360000 -1.169495
3.370000 -1.196072
3.380000 -1.221016
3.390000 -1.244335
3.400000 -1.266020
3.410000 -1.286053
3.420000 -1.304412
3.430000 -1.321076
3.440000 -1.336039
3.450000 -1.349310
3.460000 -1.360920
3.470000 -1.370927
3.480000 -1.379411
3.490000 -1.386474
3.500000 -1.392230
3.510000 -1.396803
3.520000 -1.400316
3.530000 -1.402882
3.540000 -1.404597
3.550000 -1.405539
3.560000 -1.405759
3.570000 -1.405287
3.580000 -1.404131
3.590000 -1.402285
3.600000 -1.399732
3.610000 -1.396458
3.620000 -1.392453
3.630000 -1.387723
3.640000 -1.382290
3.650000 -1.376198
3.660000 -1.369510
3.670000 -1.362303
3.680000 -1.354668
3.690000 -1.346697
3.700000 -1.338476
3.710000 -1.330081
3.720000 -1.321566
3.730000 -1.312962
3.740000 -1.304271
3.750000 -1.295473
3.760000 -1.286521
3.770000 -1.277354
3.780000 -1.267901
3.790000 -1.258088
3.800000 -1.247847
3.810000 -1.237125
3.820000 -1.225885
3.830000 -1.214110
3.840000 -1.201802
3.850000 -1.188980
3.860000 -1.175673
3.870000 -1.161913
3.880000 -1.147729
3.890000 -1.133137
3.900000 -1.118134
3.910000 -1.102696
3.920000 -1.086774
3.930000 -1.070296
3.940000 -1.053171
3.950000 -1.035293
3.960000 -1.016552
3.970000 -0.996840
3.980000 -0.976058
3.990000 -0.954127
4.000000 -0.930989
4.010000 -0.906610
4.020000 -0.880980
4.030000 -0.854110
4.040000 -0.826027
4.050000 -0.796764
4.060000 -0.766358
4.070000 -0.734834
4.080000 -0.702209
4.090000 -0.668479
4.100000 -0.633622
4.110000 -0.597598
4.120000 -0.560356
4.130000 -0.521832
4.140000 -0.481966
4.150000 -0.440704
4.160000 -0.398008
4.170000 -0.353862
4.180000 -0.308279
4.190000 -0.261297
4.200000 -0.212985
4.210000 -0.163433
4.220000 -0.112751
4.230000 -0.061059
4.240000 -0.008480
4.250000 0.044870
4.260000 0.098885
4.270000 0.153476
4.280000 0.208571
4.290000 0.264118
4.300000 0.320074
4.310000 0.376408
4.320000 0.433088
4.330000 0.490075
4.340000 0.547314
4.350000 0.604733
4.360000 0.662233
4.370000 0.719689
4.380000 0.776955
4.390000 0.833863
4.400000 0.890232
4.410000 0.945876
4.420000 1.000612
4.430000 1.054269
4.440000 1.106693
4.450000 1.157752
4.460000 1.207340
4.470000 1.255375
4.480000 1.301792
4.490000 1.346545
4.500000 1.389592
4.510000 1.430892
4.520000 1.470397
4.530000 1.508046
4.540000 1.543760
4.550000 1.577443
4.560000 1.608983
4.570000 1.638255
4.580000 1.665129
4.590000 1.689478
4.600000 1.711185
4.610000 1.730150
4.620000 1.746301
4.630000 1.759592
4.640000 1.770008
4.650000 1.777565
4.660000 1.782300
4.670000 1.784273
4.680000 1.783553
4.690000 1.780213
4.700000 1.774321
4.710000 1.765935
4.720000 1.755098
4.730000 1.741836
4.740000 1.726162
4.750000 1.708078
4.760000 1.687579
4.770000 1.664665
4.780000 1.639346
4.790000 1.611648
4.800000 1.581622
4.810000 1.549344
4.820000 1.514919
4.830000 1.478478
4.840000 1.440171
4.850000 1.400165
4.860000 1.358630
4.870000 1.315738
4.880000 1.271647
4.890000 1.226500
4.900000 1.180421
4.910000 1.133510
4.920000 1.085845
4.930000 1.037491
4.940000 0.988498
4.950000 0.938913
4.960000 0.888790
4.970000 0.838189
4.980000 0.787192
4.990000 0.735897
5.000000 0.684425
5.010000 0.632915
5.020000 0.581521
5.030000 0.530402
5.040000 0.479721
5.050000 0.429627
5.060000 0.380257
5.070000 0.331724
5.080000 0.284116
5.090000 0.237492
5.100000 0.191887
5.110000 0.147315
5.120000 0.103775
5.130000 0.061259
5.140000 0.019762
5.150000 -0.020715
5.160000 -0.060155
5.170000 -0.098523
5.180000 -0.135766
5.190000 -0.171812
5.200000 -0.206578
5.210000 -0.239975
5.220000 -0.271913
5.230000 -0.302314
5.240000 -0.331114
5.250000 -0.358273
5.260000 -0.383775
5.270000 -0.407632
5.280000 -0.429879
5.290000 -0.450569
5.300000 -0.469770
5.310000 -0.487552
5.320000 -0.503985
5.330000 -0.519124
5.340000 -0.533011
5.350000 -0.545664
5.360000 -0.557084
5.370000 -0.567249
5.380000 -0.576124
5.390000 -0.583666
5.400000 -0.589833
5.410000 -0.594588
5.420000 -0.597911
5.430000 -0.599801
5.440000 -0.600282
5.450000 -0.599402
5.460000 -0.597230
5.470000 -0.593855
5.480000 -0.589375
5.490000 -0.583891
5.500000 -0.577500
5.510000 -0.570285
5.520000 -0.562312
5.530000 -0.553627
5.540000 -0.544252
5.550000 -0.534192
5.560000 -0.523434
5.570000 -0.511961
5.580000 -0.499753
5.590000 -0.486799
5.600000 -0.473103
5.610000 -0.458689
5.620000 -0.443607
5.630000 -0.427928
5.640000 -0.411747
5.650000 -0.395177
5.660000 -0.378338
5.670000 -0.361356
5.680000 -0.344348
5.690000 -0.327419
5.700000 -0.310656
5.710000 -0.294123
5.720000 -0.277863
5.730000 -0.261898
5.740000 -0.246235
5.750000 -0.230870
5.760000 -0.215802
5.770000 -0.201034
5.780000 -0.186583
5.790000 -0.172487
5.800000 -0.158804
5.810000 -0.145613
5.820000 -0.133015
5.830000 -0.121124
5.840000 -0.110059
5.850000 -0.099941
5.860000 -0.090879
5.870000 -0.082967
5.880000 -0.076275
5.890000 -0.070849
5.900000 -0.066708
5.910000 -0.063848
5.920000 -0.062245
5.930000 -0.061864
5.940000 -0.062666
5.950000 -0.064615
5.960000 -0.067684
5.970000 -0.071864
5.980000 -0.077161
5.990000 -0.083603
6.000000 -0.091229
6.010000 -0.100092
6.020000 -0.110247
6.030000 -0.121744
6.040000 -0.134618
6.050000 -0.148889
6.060000 -0.164547
6.070000 -0.181556
6.080000 -0.199852
6.090000 -0.219347
6.100000 -0.239930
6.110000 -0.261480
6.120000 -0.283870
6.130000 -0.306975
6.140000 -0.330683
6.150000 -0.354897
6.160000 -0.379536
6.170000 -0.404543
6.180000 -0.429873
6.190000 -0.455493
6.200000 -0.481378
6.210000 -0.507494
6.220000 -0.533802
6.230000 -0.560242
6.240000 -0.586732
6.250000 -0.613167
6.260000 -0.639416
6.270000 -0.665328
6.280000 -0.690736
6.290000 -0.715467
6.300000 -0.739346
6.310000 -0.762208
6.320000 -0.783905
6.330000 -0.804308
6.340000 -0.823315
6.350000 -0.840847
6.360000 -0.856847
6.370000 -0.871277
6.380000 -0.884106
6.390000 -0.895309
6.400000 -0.904853
6.410000 -0.912696
6.420000 -0.918778
6.430000 -0.923022
6.440000 -0.925332
6.450000 -0.925598
6.460000 -0.923701
6.470000 -0.919522
6.480000 -0.912947
6.490000 -0.903879
6.500000 -0.892242
6.510000 -0.877986
6.520000 -0.861094
6.530000 -0.841576
6.540000 -0.819471
6.550000 -0.794836
6.560000 -0.767746
6.570000 -0.738279
6.580000 -0.706514
6.590000 -0.672521
6.600000 -0.636357
6.610000 -0.598062
6.620000 -0.557664
6.630000 -0.515176
6.640000 -0.470606
6.650000 -0.423964
6.660000 -0.375266
6.670000 -0.324546
6.680000 -0.271861
6.690000 -0.217296
6.700000 -0.160963
6.710000 -0.103005
6.720000 -0.043589
6.730000 0.017097
6.740000 0.078855
6.750000 0.141483
6.760000 0.204784
6.770000 0.268574
6.780000 0.332685
6.790000 0.396967
6.800000 0.461294
6.810000 0.525553
6.820000 0.589644
6.830000 0.653470
6.840000 0.716933
6.850000 0.779924
6.860000 0.842317
6.870000 0.903966
6.880000 0.964702
6.890000 1.024337
6.900000 1.082664
6.910000 1.139467
6.920000 1.194526
6.930000 1.247627
6.940000 1.298571
6.950000 1.347179
6.960000 1.393299
6.970000 1.436809
6.980000 1.477613
6.990000 1.515643
7.000000 1.550850
7.010000 1.583198
7.020000 1.612655
7.030000 1.639191
7.040000 1.662763
7.050000 1.683320
7.060000 1.700792
7.070000 1.715102
7.080000 1.726157
7.090000 1.733867
7.100000 1.738143
7.110000 1.738909
7.120000 1.736110
7.130000 1.729718
7.140000 1.719736
7.150000 1.706201
7.160000 1.689181
7.170000 1.668775
7.180000 1.645102
7.190000 1.618295
7.200000 1.588498
7.210000 1.555847
7.220000 1.520475
7.230000 1.482499
7.240000 1.442022
7.250000 1.399132
7.260000 1.353905
7.270000 1.306414
7.280000 1.256729
7.290000 1.204933
7.300000 1.151123
7.310000 1.095418
7.320000 1.037965
7.330000 0.978934
7.340000 0.918524
7.350000 0.856953
7.360000 0.794453
7.370000 0.731264
7.380000 0.667621
7.390000 0.603748
7.400000 0.539854
7.410000 0.476122
7.420000 0.412712
7.430000 0.349760
7.440000 0.287378
7.450000 0.225665
7.460000 0.164713
7.470000 0.104611
7.480000 0.045453
7.490000 -0.012650
7.500000 -0.069575
7.510000 -0.125181
7.520000 -0.179310
7.530000 -0.231795
7.540000 -0.282462
7.550000 -0.331143
7.560000 -0.377679
7.570000 -0.421932
7.580000 -0.463791
7.590000 -0.503172
7.600000 -0.540025
7.610000 -0.574332
7.620000 -0.606099
7.630000 -0.635353
7.640000 -0.662135
7.650000 -0.686489
7.660000 -0.708458
7.670000 -0.728073
7.680000 -0.745353
7.690000 -0.760302
7.700000 -0.772910
7.710000 -0.783156
7.720000 -0.791017
7.730000 -0.796471
7.740000 -0.799510
7.750000 -0.800144
7.760000 -0.798405
7.770000 -0.794356
7.780000 -0.788088
7.790000 -0.779719
7.800000 -0.769389
7.810000 -0.757256
7.820000 -0.743482
7.830000 -0.728232
7.840000 -0.711659
7.850000 -0.693902
7.860000 -0.675080
7.870000 -0.655290
7.880000 -0.634611
7.890000 -0.613101
7.900000 -0.590813
7.910000 -0.567792
7.920000 -0.544091
7.930000 -0.519773
7.940000 -0.494919
7.950000 -0.469630
7.960000 -0.444029
7.970000 -0.418260
7.980000 -0.392479
7.990000 -0.366852
8.000000 -0.341546
8.010000 -0.316717
8.020000 -0.292507
8.030000 -0.269035
8.040000 -0.246393
8.050000 -0.224647
8.060000 -0.203835
8.070000 -0.183975
8.080000 -0.165069
8.090000 -0.147112
8.100000 -0.130096
8.110000 -0.114026
8.120000 -0.098917
8.130000 -0.084802
8.140000 -0.071734
8.150000 -0.059779
8.160000 -0.049018
8.170000 -0.039537
8.180000 -0.031419
8.190000 -0.024736
8.200000 -0.019544
8.210000 -0.015875
8.220000 -0.013734
8.230000 -0.013097
8.240000 -0.013917
8.250000 -0.016125
8.260000 -0.019636
8.270000 -0.024362
8.280000 -0.030215
8.290000 -0.037118
8.300000 -0.045010
8.310000 -0.053848
8.320000 -0.063612
8.330000 -0.074298
8.340000 -0.085919
8.350000 -0.098493
8.360000 -0.112042
8.370000 -0.126577
8.380000 -0.142094
8.390000 -0.158572
8.400000 -0.175963
8.410000 -0.194196
8.420000 -0.213177
8.430000 -0.232795
8.440000 -0.252930
8.450000 -0.273459
8.460000 -0.294264
8.470000 -0.315241
8.480000 -0.336307
8.490000 -0.357399
8.500000 -0.378480
8.510000 -0.399532
8.520000 -0.420557
8.530000 -0.441564
8.540000 -0.462566
8.550000 -0.483570
8.560000 -0.504570
8.570000 -0.525541
8.580000 -0.546436
8.590000 -0.567186
8.600000 -0.587701
8.610000 -0.607877
8.620000 -0.627601
8.630000 -0.646759
8.640000 -0.665245
8.650000 -0.682967
8.660000 -0.699855
8.670000 -0.715862
8.680000 -0.730964
8.690000 -0.745160
8.700000 -0.758467
8.710000 -0.770910
8.720000 -0.782516
8.730000 -0.793308
8.740000 -0.803292
8.750000 -0.812461
8.760000 -0.820779
8.770000 -0.828193
8.780000 -0.834628
8.790000 -0.839993
8.800000 -0.844191
8.810000 -0.847124
8.820000 -0.848701
8.830000 -0.848848
8.840000 -0.847511
8.850000 -0.844660
8.860000 -0.840289
8.870000 -0.834414
8.880000 -0.827070
8.890000 -0.818297
8.900000 -0.808142
8.910000 -0.796644
8.920000 -0.783828
8.930000 -0.769703
8.940000 -0.754254
8.950000 -0.737447
8.960000 -0.719228
8.970000 -0.699530
8.980000 -0.678280
8.990000 -0.655406
9.000000 -0.630846
9.010000 -0.604557
9.020000 -0.576516
9.030000 -0.546729
9.040000 -0.515226
9.050000 -0.482062
9.060000 -0.447308
9.070000 -0.411051
9.080000 -0.373376
9.090000 -0.334370
9.100000 -0.294103
9.110000 -0.252633
9.120000 -0.209997
9.130000 -0.166212
9.140000 -0.121279
9.150000 -0.075191
9.160000 -0.027932
9.170000 0.020506
9.180000 0.070120
9.190000 0.120887
9.200000 0.172761
9.210000 0.225667
9.220000 0.279504
9.230000 0.334145
9.240000 0.389446
9.250000 0.445250
9.260000 0.501397
9.270000 0.557732
9.280000 0.614111
9.290000 0.670408
9.300000 0.726516
9.310000 0.782351
9.320000 0.837844
9.330000 0.892938
9.340000 0.947584
9.350000 1.001730
9.360000 1.055312
9.370000 1.108252
9.380000 1.160449
9.390000 1.211780
9.400000 1.262098
9.410000 1.311236
9.420000 1.359014
9.430000 1.405245
9.440000 1.449746
9.450000 1.492343
9.460000 1.532881
9.470000 1.571229
9.480000 1.607281
9.490000 1.640961
9.500000 1.672213
9.510000 1.701003
9.520000 1.727307
9.530000 1.751107
9.540000 1.772381
9.550000 1.791098
9.560000 1.807209
9.570000 1.820654
9.580000 1.831352
9.590000 1.839212
9.600000 1.844136
9.610000 1.846026
9.620000 1.844794
9.630000 1.840369
9.640000 1.832704
9.650000 1.821780
9.660000 1.807613
9.670000 1.790246
9.680000 1.769755
9.690000 1.746233
9.700000 1.719792
9.710000 1.690548
9.720000 1.658616
9.730000 1.624105
9.740000 1.587106
9.750000 1.547698
9.760000 1.505940
9.770000 1.461883
9.780000 1.415565
9.790000 1.367029
9.800000 1.316321
9.810000 1.263503
9.820000 1.208659
9.830000 1.151898
9.840000 1.093355
9.850000 1.033193
9.860000 0.971596
9.870000 0.908763
9.880000 0.844903
9.890000 0.780221
9.900000 0.714917
9.910000 0.649170
9.920000 0.583141
9.930000 0.516964
9.940000 0.450749
9.950000 0.384586
9.960000 0.318548
9.970000 0.252701
9.980000 0.187106
9.990000 0.121834
10.000000 0.056966
10.010000 -0.007398
10.020000 -0.071140
10.030000 -0.134127
10.040000 -0.196209
10.050000 -0.257231
10.060000 -0.317037
10.070000 -0.375480
10.080000 -0.432431
10.090000 -0.487783
10.100000 -0.541457
10.110000 -0.593407
10.120000 -0.643612
10.130000 -0.692080
10.140000 -0.738838
10.150000 -0.783924
10.160000 -0.827381
10.170000 -0.869246
10.180000 -0.909547
10.190000 -0.948294
10.200000 -0.985482
10.210000 -1.021085
10.220000 -1.055067
10.230000 -1.087382
10.240000 -1.117983
10.250000 -1.146831
10.260000 -1.173901
10.270000 -1.199190
10.280000 -1.222719
10.290000 -1.244536
10.300000 -1.264712
10.310000 -1.283342
10.320000 -1.300532
10.330000 -1.316396
10.340000 -1.331046
10.350000 -1.344582
10.360000 -1.357088
10.370000 -1.368625
10.380000 -1.379231
10.390000 -1.388920
10.400000 -1.397686
10.410000 -1.405510
10.420000 -1.412366
10.430000 -1.418231
10.440000 -1.423090
10.450000 -1.426943
10.460000 -1.429812
10.470000 -1.431737
10.480000 -1.432781
10.490000 -1.433021
10.500000 -1.432543
10.510000 -1.431437
10.520000 -1.429783
10.530000 -1.427651
10.540000 -1.425087
10.550000 -1.422112
10.560000 -1.418724
10.570000 -1.414894
10.580000 -1.410570
10.590000 -1.405689
10.600000 -1.400180
10.610000 -1.393974
10.620000 -1.387013
10.630000 -1.379252
10.640000 -1.370670
10.650000 -1.361268
