# r(A)  G(r)
0.000000 0.000000
0.010000 -0.005489
0.020000 -0.011036
0.030000 -0.016696
0.040000 -0.022517
0.050000 -0.028537
0.060000 -0.034780
0.070000 -0.041257
0.080000 -0.047963
0.090000 -0.054881
0.100000 -0.061975
0.110000 -0.069202
0.120000 -0.076506
0.130000 -0.083829
0.140000 -0.091108
0.150000 -0.098283
0.160000 -0.105299
0.170000 -0.112110
0.180000 -0.118682
0.190000 -0.124991
0.200000 -0.131031
0.210000 -0.136806
0.220000 -0.142331
0.230000 -0.147633
0.240000 -0.152743
0.250000 -0.157693
0.260000 -0.162516
0.270000 -0.167239
0.280000 -0.171881
0.290000 -0.176451
0.300000 -0.180947
0.310000 -0.185356
0.320000 -0.189656
0.330000 -0.193816
0.340000 -0.197802
0.350000 -0.201579
0.360000 -0.205111
0.370000 -0.208372
0.380000 -0.211342
0.390000 -0.214011
0.400000 -0.216380
0.410000 -0.218460
0.420000 -0.220271
0.430000 -0.221841
0.440000 -0.223198
0.450000 -0.224372
0.460000 -0.225390
0.470000 -0.226272
0.480000 -0.227031
0.490000 -0.227668
0.500000 -0.228178
0.510000 -0.228545
0.520000 -0.228749
0.530000 -0.228767
0.540000 -0.228573
0.550000 -0.228147
0.560000 -0.227476
0.570000 -0.226553
0.580000 -0.225382
0.590000 -0.223979
0.600000 -0.222366
0.610000 -0.220577
0.620000 -0.218646
0.630000 -0.216613
0.640000 -0.214515
0.650000 -0.212383
0.660000 -0.210243
0.670000 -0.208112
0.680000 -0.205997
0.690000 -0.203898
0.700000 -0.201806
0.710000 -0.199711
0.720000 -0.197598
0.730000 -0.195457
0.740000 -0.193280
0.750000 -0.191070
0.760000 -0.188837
0.770000 -0.186599
0.780000 -0.184387
0.790000 -0.182237
0.800000 -0.180191
0.810000 -0.178292
0.820000 -0.176583
0.830000 -0.175101
0.840000 -0.173880
0.850000 -0.172939
0.860000 -0.172293
0.870000 -0.171944
0.880000 -0.171889
0.890000 -0.172117
0.900000 -0.172616
0.910000 -0.173373
0.920000 -0.174380
0.930000 -0.175634
0.940000 -0.177140
0.950000 -0.178913
0.960000 -0.180975
0.970000 -0.183355
0.980000 -0.186087
0.990000 -0.189206
1.000000 -0.192746
1.010000 -0.196737
1.020000 -0.201199
1.030000 -0.206146
1.040000 -0.211579
1.050000 -0.217491
1.060000 -0.223864
1.070000 -0.230677
1.080000 -0.237901
1.090000 -0.245511
1.100000 -0.253481
1.110000 -0.261794
1.120000 -0.270436
1.130000 -0.279405
1.140000 -0.288704
1.150000 -0.298346
1.160000 -0.308346
1.170000 -0.318722
1.180000 -0.329490
1.190000 -0.340660
1.200000 -0.352239
1.210000 -0.364220
1.220000 -0.376590
1.230000 -0.389324
1.240000 -0.402389
1.250000 -0.415747
1.260000 -0.429353
1.270000 -0.443166
1.280000 -0.457145
1.290000 -0.471258
1.300000 -0.485477
1.310000 -0.499784
1.320000 -0.514172
1.330000 -0.528638
1.340000 -0.543187
1.350000 -0.557825
1.360000 -0.572559
1.370000 -0.587390
1.380000 -0.602316
1.390000 -0.617324
1.400000 -0.632393
1.410000 -0.647493
1.420000 -0.662587
1.430000 -0.677631
1.440000 -0.692580
1.450000 -0.707387
1.460000 -0.722013
1.470000 -0.736420
1.480000 -0.750584
1.490000 -0.764486
1.500000 -0.778118
1.510000 -0.791481
1.520000 -0.804581
1.530000 -0.817428
1.540000 -0.830030
1.550000 -0.842396
1.560000 -0.854525
1.570000 -0.866411
1.580000 -0.878039
1.590000 -0.889383
1.600000 -0.900413
1.610000 -0.911092
1.620000 -0.921379
1.630000 -0.931237
1.640000 -0.940630
1.650000 -0.949530
1.660000 -0.957917
1.670000 -0.965779
1.680000 -0.973115
1.690000 -0.979932
1.700000 -0.986243
1.710000 -0.992061
1.720000 -0.997404
1.730000 -1.002283
1.740000 -1.006703
1.750000 -1.010664
1.760000 -1.014153
1.770000 -1.017152
1.780000 -1.019633
1.790000 -1.021562
1.800000 -1.022904
1.810000 -1.023622
1.820000 -1.023685
1.830000 -1.023067
1.840000 -1.021749
1.850000 -1.019724
1.860000 -1.016991
1.870000 -1.013558
1.880000 -1.009439
1.890000 -1.004652
1.900000 -0.999213
1.910000 -0.993135
1.920000 -0.986426
1.930000 -0.979086
1.940000 -0.971105
1.950000 -0.962465
1.960000 -0.953142
1.970000 -0.943104
1.980000 -0.932319
1.990000 -0.920755
2.000000 -0.908384
2.010000 -0.895185
2.020000 -0.881146
2.030000 -0.866265
2.040000 -0.850549
2.050000 -0.834014
2.060000 -0.816684
2.070000 -0.798584
2.080000 -0.779742
2.090000 -0.760184
2.100000 -0.739930
2.110000 -0.718992
2.120000 -0.697377
2.130000 -0.675083
2.140000 -0.652102
2.150000 -0.628422
2.160000 -0.604029
2.170000 -0.578914
2.180000 -0.553069
2.190000 -0.526498
2.200000 -0.499212
2.210000 -0.471235
2.220000 -0.442600
2.230000 -0.413351
2.240000 -0.383537
2.250000 -0.353216
2.260000 -0.322442
2.270000 -0.291272
2.280000 -0.259755
2.290000 -0.227936
2.300000 -0.195850
2.310000 -0.163528
2.320000 -0.130993
2.330000 -0.098263
2.340000 -0.065357
2.350000 -0.032294
2.360000 0.000900
2.370000 0.034193
2.380000 0.067544
2.390000 0.100902
2.400000 0.134205
2.410000 0.167383
2.420000 0.200361
2.430000 0.233060
2.440000 0.265402
2.450000 0.297311
2.460000 0.328720
2.470000 0.359567
2.480000 0.389802
2.490000 0.419383
2.500000 0.448278
2.510000 0.476459
2.520000 0.503902
2.530000 0.530585
2.540000 0.556481
2.550000 0.581562
2.560000 0.605788
2.570000 0.629116
2.580000 0.651495
2.590000 0.672866
2.600000 0.693170
2.610000 0.712345
2.620000 0.730334
2.630000 0.747085
2.640000 0.762556
2.650000 0.776715
2.660000 0.789541
2.670000 0.801026
2.680000 0.811173
2.690000 0.819992
2.700000 0.827498
2.710000 0.833709
2.720000 0.838643
2.730000 0.842312
2.740000 0.844726
2.750000 0.845887
2.760000 0.845791
2.770000 0.844429
2.780000 0.841792
2.790000 0.837869
2.800000 0.832653
2.810000 0.826144
2.820000 0.818352
2.830000 0.809295
2.840000 0.799006
2.850000 0.787527
2.860000 0.774910
2.870000 0.761214
2.880000 0.746503
2.890000 0.730842
2.900000 0.714292
2.910000 0.696911
2.920000 0.678750
2.930000 0.659851
2.940000 0.640247
2.950000 0.619968
2.960000 0.599037
2.970000 0.577475
2.980000 0.555305
2.990000 0.532556
3.000000 0.509260
3.010000 0.485461
3.020000 0.461209
3.030000 0.436563
3.040000 0.411591
3.050000 0.386364
3.060000 0.360953
3.070000 0.335429
3.080000 0.309858
3.090000 0.284297
3.100000 0.258794
3.110000 0.233387
3.120000 0.208103
3.130000 0.182961
3.140000 0.157972
3.150000 0.133145
3.160000 0.108487
3.170000 0.084008
3.180000 0.059722
3.190000 0.035651
3.200000 0.011824
3.210000 -0.011724
3.220000 -0.034952
3.230000 -0.057815
3.240000 -0.080269
3.250000 -0.102272
3.260000 -0.123788
3.270000 -0.144790
3.280000 -0.165259
3.290000 -0.185190
3.300000 -0.204585
3.310000 -0.223457
3.320000 -0.241824
3.330000 -0.259707
3.340000 -0.277128
3.350000 -0.294106
3.360000 -0.310653
3.370000 -0.326773
3.380000 -0.342464
3.390000 -0.357714
3.400000 -0.372504
3.410000 -0.386813
3.420000 -0.400615
3.430000 -0.413889
3.440000 -0.426615
3.450000 -0.438784
3.460000 -0.450390
3.470000 -0.461442
3.480000 -0.471952
3.490000 -0.481943
3.500000 -0.491441
3.510000 -0.500472
3.520000 -0.509061
3.530000 -0.517230
3.540000 -0.524992
3.550000 -0.532349
3.560000 -0.539296
3.570000 -0.545817
3.580000 -0.551888
3.590000 -0.557482
3.600000 -0.562565
3.610000 -0.567108
3.620000 -0.571082
3.630000 -0.574467
3.640000 -0.577248
3.650000 -0.579422
3.660000 -0.580991
3.670000 -0.581965
3.680000 -0.582357
3.690000 -0.582181
3.700000 -0.581452
3.710000 -0.580176
3.720000 -0.578354
3.730000 -0.575979
3.740000 -0.573033
3.750000 -0.569491
3.760000 -0.565318
3.770000 -0.560477
3.780000 -0.554931
3.790000 -0.548642
3.800000 -0.541577
3.810000 -0.533714
3.820000 -0.525037
3.830000 -0.515541
3.840000 -0.505231
3.850000 -0.494119
3.860000 -0.482223
3.870000 -0.469565
3.880000 -0.456165
3.890000 -0.442040
3.900000 -0.427203
3.910000 -0.411658
3.920000 -0.395403
3.930000 -0.378427
3.940000 -0.360716
3.950000 -0.342253
3.960000 -0.323021
3.970000 -0.303005
3.980000 -0.282200
3.990000 -0.260607
4.000000 -0.238240
4.010000 -0.215123
4.020000 -0.191291
4.030000 -0.166786
4.040000 -0.141660
4.050000 -0.115966
4.060000 -0.089756
4.070000 -0.063083
4.080000 -0.035991
4.090000 -0.008520
4.100000 0.019301
4.110000 0.047446
4.120000 0.075896
4.130000 0.104635
4.140000 0.133647
4.150000 0.162911
4.160000 0.192403
4.170000 0.222088
4.180000 0.251923
4.190000 0.281853
4.200000 0.311816
4.210000 0.341740
4.220000 0.371551
4.230000 0.401172
4.240000 0.430527
4.250000 0.459545
4.260000 0.488164
4.270000 0.516329
4.280000 0.543996
4.290000 0.571127
4.300000 0.597694
4.310000 0.623673
4.320000 0.649042
4.330000 0.673779
4.340000 0.697855
4.350000 0.721239
4.360000 0.743889
4.370000 0.765757
4.380000 0.786789
4.390000 0.806924
4.400000 0.826099
4.410000 0.844254
4.420000 0.861330
4.430000 0.877277
4.440000 0.892054
4.450000 0.905631
4.460000 0.917990
4.470000 0.929124
4.480000 0.939034
4.490000 0.947727
4.500000 0.955216
4.510000 0.961512
4.520000 0.966626
4.530000 0.970562
4.540000 0.973318
4.550000 0.974887
4.560000 0.975256
4.570000 0.974407
4.580000 0.972322
4.590000 0.968983
4.600000 0.964380
4.610000 0.958508
4.620000 0.951372
4.630000 0.942991
4.640000 0.933393
4.650000 0.922619
4.660000 0.910717
4.670000 0.897741
4.680000 0.883750
4.690000 0.868802
4.700000 0.852952
4.710000 0.836248
4.720000 0.818732
4.730000 0.800440
4.740000 0.781398
4.750000 0.761631
4.760000 0.741159
4.770000 0.720003
4.780000 0.698188
4.790000 0.675744
4.800000 0.652711
4.810000 0.629138
4.820000 0.605084
4.830000 0.580616
4.840000 0.555807
4.850000 0.530735
4.860000 0.505480
4.870000 0.480115
4.880000 0.454711
4.890000 0.429330
4.900000 0.404024
4.910000 0.378833
4.920000 0.353792
4.930000 0.328925
4.940000 0.304252
4.950000 0.279792
4.960000 0.255564
4.970000 0.231590
4.980000 0.207899
4.990000 0.184527
5.000000 0.161516
5.010000 0.138915
5.020000 0.116775
5.030000 0.095152
5.040000 0.074096
5.050000 0.053654
5.060000 0.033864
5.070000 0.014754
5.080000 -0.003659
5.090000 -0.021372
5.100000 -0.038391
5.110000 -0.054732
5.120000 -0.070416
5.130000 -0.085469
5.140000 -0.099915
5.150000 -0.113778
5.160000 -0.127073
5.170000 -0.139813
5.180000 -0.152001
5.190000 -0.163636
5.200000 -0.174713
5.210000 -0.185226
5.220000 -0.195170
5.230000 -0.204545
5.240000 -0.213361
5.250000 -0.221633
5.260000 -0.229391
5.270000 -0.236673
5.280000 -0.243528
5.290000 -0.250010
5.300000 -0.256180
5.310000 -0.262098
5.320000 -0.267823
5.330000 -0.273408
5.340000 -0.278897
5.350000 -0.284328
5.360000 -0.289729
5.370000 -0.295117
5.380000 -0.300505
5.390000 -0.305903
5.400000 -0.311316
5.410000 -0.316755
5.420000 -0.322233
5.430000 -0.327771
5.440000 -0.333397
5.450000 -0.339145
5.460000 -0.345057
5.470000 -0.351179
5.480000 -0.357557
5.490000 -0.364235
5.500000 -0.371251
5.510000 -0.378636
5.520000 -0.386411
5.530000 -0.394583
5.540000 -0.403149
5.550000 -0.412095
5.560000 -0.421398
5.570000 -0.431029
5.580000 -0.440957
5.590000 -0.451150
5.600000 -0.461582
5.610000 -0.472228
5.620000 -0.483072
5.630000 -0.494105
5.640000 -0.505320
5.650000 -0.516717
5.660000 -0.528294
5.670000 -0.540048
5.680000 -0.551968
5.690000 -0.564038
5.700000 -0.576230
5.710000 -0.588505
5.720000 -0.600813
5.730000 -0.613095
5.740000 -0.625285
5.750000 -0.637311
5.760000 -0.649102
5.770000 -0.660589
5.780000 -0.671706
5.790000 -0.682397
5.800000 -0.692612
5.810000 -0.702313
5.820000 -0.711466
5.830000 -0.720045
5.840000 -0.728026
5.850000 -0.735386
5.860000 -0.742098
5.870000 -0.748130
5.880000 -0.753443
5.890000 -0.757989
5.900000 -0.761714
5.910000 -0.764556
5.920000 -0.766449
5.930000 -0.767327
5.940000 -0.767126
5.950000 -0.765787
5.960000 -0.763258
5.970000 -0.759501
5.980000 -0.754486
5.990000 -0.748196
6.000000 -0.740625
6.010000 -0.731775
6.020000 -0.721652
6.030000 -0.710266
6.040000 -0.697627
6.050000 -0.683740
6.060000 -0.668605
6.070000 -0.652219
6.080000 -0.634569
6.090000 -0.615641
6.100000 -0.595417
6.110000 -0.573881
6.120000 -0.551020
6.130000 -0.526828
6.140000 -0.501309
6.150000 -0.474478
6.160000 -0.446363
6.170000 -0.417006
6.180000 -0.386455
6.190000 -0.354771
6.200000 -0.322020
6.210000 -0.288268
6.220000 -0.253581
6.230000 -0.218025
6.240000 -0.181654
6.250000 -0.144522
6.260000 -0.106672
6.270000 -0.068143
6.280000 -0.028972
6.290000 0.010804
6.300000 0.051148
6.310000 0.092015
6.320000 0.133351
6.330000 0.175096
6.340000 0.217176
6.350000 0.259507
6.360000 0.301999
6.370000 0.344553
6.380000 0.387069
6.390000 0.429446
6.400000 0.471588
6.410000 0.513403
6.420000 0.554811
6.430000 0.595738
6.440000 0.636122
6.450000 0.675906
6.460000 0.715043
6.470000 0.753485
6.480000 0.791188
6.490000 0.828103
6.500000 0.864176
6.510000 0.899347
6.520000 0.933550
6.530000 0.966709
6.540000 0.998744
6.550000 1.029574
6.560000 1.059116
6.570000 1.087290
6.580000 1.114027
6.590000 1.139262
6.600000 1.162945
6.610000 1.185037
6.620000 1.205511
6.630000 1.224352
6.640000 1.241550
6.650000 1.257104
6.660000 1.271013
6.670000 1.283277
6.680000 1.293891
6.690000 1.302846
6.700000 1.310128
6.710000 1.315715
6.720000 1.319584
6.730000 1.321710
6.740000 1.322068
6.750000 1.320639
6.760000 1.317410
6.770000 1.312381
6.780000 1.305561
6.790000 1.296972
6.800000 1.286649
6.810000 1.274636
6.820000 1.260985
6.830000 1.245754
6.840000 1.229001
6.850000 1.210782
6.860000 1.191150
6.870000 1.170150
6.880000 1.147822
6.890000 1.124198
6.900000 1.099304
6.910000 1.073164
6.920000 1.045801
6.930000 1.017243
6.940000 0.987520
6.950000 0.956673
6.960000 0.924753
6.970000 0.891818
6.980000 0.857938
6.990000 0.823190
7.000000 0.787657
7.010000 0.751423
7.020000 0.714572
7.030000 0.677181
7.040000 0.639324
7.050000 0.601063
7.060000 0.562452
7.070000 0.523535
7.080000 0.484349
7.090000 0.444927
7.100000 0.405298
7.110000 0.365492
7.120000 0.325545
7.130000 0.285495
7.140000 0.245393
7.150000 0.205294
7.160000 0.165264
7.170000 0.125372
7.180000 0.085694
7.190000 0.046303
7.200000 0.007272
7.210000 -0.031332
7.220000 -0.069452
7.230000 -0.107040
7.240000 -0.144056
7.250000 -0.180472
7.260000 -0.216269
7.270000 -0.251432
7.280000 -0.285947
7.290000 -0.319803
7.300000 -0.352982
7.310000 -0.385463
7.320000 -0.417214
7.330000 -0.448196
7.340000 -0.478364
7.350000 -0.507664
7.360000 -0.536042
7.370000 -0.563441
7.380000 -0.589808
7.390000 -0.615095
7.400000 -0.639262
7.410000 -0.662282
7.420000 -0.684134
7.430000 -0.704810
7.440000 -0.724307
7.450000 -0.742630
7.460000 -0.759785
7.470000 -0.775779
7.480000 -0.790613
7.490000 -0.804283
7.500000 -0.816780
7.510000 -0.828082
7.520000 -0.838165
7.530000 -0.846997
7.540000 -0.854544
7.550000 -0.860772
7.560000 -0.865650
7.570000 -0.869156
7.580000 -0.871276
7.590000 -0.872005
7.600000 -0.871352
7.610000 -0.869334
7.620000 -0.865979
7.630000 -0.861319
7.640000 -0.855392
7.650000 -0.848233
7.660000 -0.839876
7.670000 -0.830350
7.680000 -0.819676
7.690000 -0.807869
7.700000 -0.794937
7.710000 -0.780886
7.720000 -0.765716
7.730000 -0.749431
7.740000 -0.732039
7.750000 -0.713555
7.760000 -0.694004
7.770000 -0.673422
7.780000 -0.651854
7.790000 -0.629360
7.800000 -0.606003
7.810000 -0.581856
7.820000 -0.556994
7.830000 -0.531489
7.840000 -0.505410
7.850000 -0.478823
7.860000 -0.451782
7.870000 -0.424335
7.880000 -0.396521
7.890000 -0.368377
7.900000 -0.339931
7.910000 -0.311216
7.920000 -0.282264
7.930000 -0.253114
7.940000 -0.223812
7.950000 -0.194414
7.960000 -0.164983
7.970000 -0.135592
7.980000 -0.106318
7.990000 -0.077242
8.000000 -0.048444
8.010000 -0.020002
8.020000 0.008013
8.030000 0.035542
8.040000 0.062532
8.050000 0.088944
8.060000 0.114747
8.070000 0.139922
8.080000 0.164452
8.090000 0.188324
8.100000 0.211525
8.110000 0.234038
8.120000 0.255843
8.130000 0.276911
8.140000 0.297206
8.150000 0.316689
8.160000 0.335313
8.170000 0.353033
8.180000 0.369806
8.190000 0.385592
8.200000 0.400362
8.210000 0.414093
8.220000 0.426778
8.230000 0.438418
8.240000 0.449028
8.250000 0.458629
8.260000 0.467249
8.270000 0.474918
8.280000 0.481666
8.290000 0.487520
8.300000 0.492499
8.310000 0.496616
8.320000 0.499878
8.330000 0.502283
8.340000 0.503825
8.350000 0.504497
8.360000 0.504290
8.370000 0.503202
8.380000 0.501237
8.390000 0.498408
8.400000 0.494735
8.410000 0.490253
8.420000 0.485001
8.430000 0.479028
8.440000 0.472386
8.450000 0.465126
8.460000 0.457300
8.470000 0.448951
8.480000 0.440115
8.490000 0.430820
8.500000 0.421085
8.510000 0.410919
8.520000 0.400327
8.530000 0.389308
8.540000 0.377863
8.550000 0.365994
8.560000 0.353710
8.570000 0.341027
8.580000 0.327970
8.590000 0.314572
8.600000 0.300875
8.610000 0.286926
8.620000 0.272777
8.630000 0.258476
8.640000 0.244070
8.650000 0.229601
8.660000 0.215099
8.670000 0.200589
8.680000 0.186084
8.690000 0.171588
8.700000 0.157101
8.710000 0.142618
8.720000 0.128135
8.730000 0.113650
8.740000 0.099167
8.750000 0.084699
8.760000 0.070266
8.770000 0.055899
8.780000 0.041636
8.790000 0.027520
8.800000 0.013598
8.810000 -0.000083
8.820000 -0.013481
8.830000 -0.026559
8.840000 -0.039288
8.850000 -0.051650
8.860000 -0.063636
8.870000 -0.075244
8.880000 -0.086480
8.890000 -0.097353
8.900000 -0.107872
8.910000 -0.118044
8.920000 -0.127869
8.930000 -0.137341
8.940000 -0.146445
8.950000 -0.155157
8.960000 -0.163448
8.970000 -0.171282
8.980000 -0.178622
8.990000 -0.185433
9.000000 -0.191684
9.010000 -0.197351
9.020000 -0.202420
9.030000 -0.206887
9.040000 -0.210761
9.050000 -0.214057
9.060000 -0.216799
9.070000 -0.219016
9.080000 -0.220736
9.090000 -0.221987
9.100000 -0.222792
9.110000 -0.223168
9.120000 -0.223122
9.130000 -0.222657
9.140000 -0.221767
9.150000 -0.220445
9.160000 -0.218679
9.170000 -0.216462
9.180000 -0.213792
9.190000 -0.210673
9.200000 -0.207122
9.210000 -0.203164
9.220000 -0.198835
9.230000 -0.194181
9.240000 -0.189254
9.250000 -0.184110
9.260000 -0.178805
9.270000 -0.173392
9.280000 -0.167921
9.290000 -0.162432
9.300000 -0.156955
9.310000 -0.151514
9.320000 -0.146125
9.330000 -0.140799
9.340000 -0.135542
9.350000 -0.130363
9.360000 -0.125275
9.370000 -0.120296
9.380000 -0.115452
9.390000 -0.110777
9.400000 -0.106315
9.410000 -0.102115
9.420000 -0.098233
9.430000 -0.094724
9.440000 -0.091642
9.450000 -0.089035
9.460000 -0.086944
9.470000 -0.085400
9.480000 -0.084422
9.490000 -0.084020
9.500000 -0.084193
9.510000 -0.084932
9.520000 -0.086228
9.530000 -0.088065
9.540000 -0.090432
9.550000 -0.093324
9.560000 -0.096739
9.570000 -0.100684
9.580000 -0.105172
9.590000 -0.110222
9.600000 -0.115857
9.610000 -0.122097
9.620000 -0.128962
9.630000 -0.136463
9.640000 -0.144606
9.650000 -0.153381
9.660000 -0.162772
9.670000 -0.172747
9.680000 -0.183268
9.690000 -0.194289
9.700000 -0.205758
9.710000 -0.217625
9.720000 -0.229840
9.730000 -0.242360
9.740000 -0.255148
9.750000 -0.268173
9.760000 -0.281416
9.770000 -0.294859
9.780000 -0.308491
9.790000 -0.322301
9.800000 -0.336276
9.810000 -0.350398
9.820000 -0.364640
9.830000 -0.378967
9.840000 -0.393333
9.850000 -0.407683
9.860000 -0.421954
9.870000 -0.436077
9.880000 -0.449982
9.890000 -0.463600
9.900000 -0.476864
9.910000 -0.489717
9.920000 -0.502109
9.930000 -0.514001
9.940000 -0.525362
9.950000 -0.536170
9.960000 -0.546408
9.970000 -0.556061
9.980000 -0.565115
9.990000 -0.573553
10.000000 -0.581351
10.010000 -0.588477
10.020000 -0.594891
10.030000 -0.600549
10.040000 -0.605397
10.050000 -0.609379
10.060000 -0.612440
10.070000 -0.614528
10.080000 -0.615598
10.090000 -0.615611
10.100000 -0.614544
10.110000 -0.612382
10.120000 -0.609122
10.130000 -0.604771
10.140000 -0.599343
10.150000 -0.592858
10.160000 -0.585336
10.170000 -0.576793
10.180000 -0.567244
10.190000 -0.556697
10.200000 -0.545153
10.210000 -0.532607
10.220000 -0.519050
10.230000 -0.504473
10.240000 -0.488865
10.250000 -0.472222
10.260000 -0.454546
10.270000 -0.435852
10.280000 -0.416163
10.290000 -0.395517
10.300000 -0.373962
10.310000 -0.351557
10.320000 -0.328368
10.330000 -0.304464
10.340000 -0.279917
10.350000 -0.254795
10.360000 -0.229162
10.370000 -0.203074
10.380000 -0.176580
10.390000 -0.149724
10.400000 -0.122543
10.410000 -0.095070
10.420000 -0.067340
10.430000 -0.039390
10.440000 -0.011263
10.450000 0.016990
10.460000 0.045307
10.470000 0.073617
10.480000 0.101842
10.490000 0.129894
10.500000 0.157683
10.510000 0.185115
10.520000 0.212102
10.530000 0.238559
10.540000 0.264411
10.550000 0.289593
10.560000 0.314050
10.570000 0.337738
10.580000 0.360622
10.590000 0.382673
10.600000 0.403866
10.610000 0.424176
10.620000 0.443575
10.630000 0.462032
10.640000 0.479509
10.650000 0.495961
10.660000 0.511338
10.670000 0.525589
