# r(A)  G(r)
0.000000 0.000000
0.010000 -0.005340
0.020000 -0.010745
0.030000 -0.016275
0.040000 -0.021980
0.050000 -0.027903
0.060000 -0.034068
0.070000 -0.040486
0.080000 -0.047149
0.090000 -0.054035
0.100000 -0.061106
0.110000 -0.068310
0.120000 -0.075589
0.130000 -0.082879
0.140000 -0.090112
0.150000 -0.097228
0.160000 -0.104169
0.170000 -0.110890
0.180000 -0.117358
0.190000 -0.123554
0.200000 -0.129472
0.210000 -0.135121
0.220000 -0.140519
0.230000 -0.145694
0.240000 -0.150679
0.250000 -0.155507
0.260000 -0.160208
0.270000 -0.164808
0.280000 -0.169324
0.290000 -0.173760
0.300000 -0.178113
0.310000 -0.182366
0.320000 -0.186495
0.330000 -0.190469
0.340000 -0.194253
0.350000 -0.197812
0.360000 -0.201114
0.370000 -0.204134
0.380000 -0.206854
0.390000 -0.209267
0.400000 -0.211376
0.410000 -0.213195
0.420000 -0.214744
0.430000 -0.216048
0.440000 -0.217138
0.450000 -0.218040
0.460000 -0.218779
0.470000 -0.219372
0.480000 -0.219828
0.490000 -0.220150
0.500000 -0.220328
0.510000 -0.220347
0.520000 -0.220188
0.530000 -0.219827
0.540000 -0.219244
0.550000 -0.218419
0.560000 -0.217341
0.570000 -0.216008
0.580000 -0.214426
0.590000 -0.212610
0.600000 -0.210586
0.610000 -0.208385
0.620000 -0.206042
0.630000 -0.203595
0.640000 -0.201077
0.650000 -0.198520
0.660000 -0.195946
0.670000 -0.193370
0.680000 -0.190800
0.690000 -0.188235
0.700000 -0.185668
0.710000 -0.183089
0.720000 -0.180488
0.730000 -0.177856
0.740000 -0.175189
0.750000 -0.172492
0.760000 -0.169778
0.770000 -0.167067
0.780000 -0.164389
0.790000 -0.161781
0.800000 -0.159284
0.810000 -0.156939
0.820000 -0.154787
0.830000 -0.152865
0.840000 -0.151200
0.850000 -0.149816
0.860000 -0.148723
0.870000 -0.147925
0.880000 -0.147419
0.890000 -0.147196
0.900000 -0.147247
0.910000 -0.147561
0.920000 -0.148134
0.930000 -0.148963
0.940000 -0.150058
0.950000 -0.151432
0.960000 -0.153108
0.970000 -0.155114
0.980000 -0.157483
0.990000 -0.160248
1.000000 -0.163440
1.010000 -0.167086
1.020000 -0.171204
1.030000 -0.175806
1.040000 -0.180891
1.050000 -0.186452
1.060000 -0.192473
1.070000 -0.198930
1.080000 -0.205800
1.090000 -0.213057
1.100000 -0.220679
1.110000 -0.228647
1.120000 -0.236951
1.130000 -0.245588
1.140000 -0.254561
1.150000 -0.263879
1.160000 -0.273556
1.170000 -0.283606
1.180000 -0.294043
1.190000 -0.304873
1.200000 -0.316099
1.210000 -0.327714
1.220000 -0.339700
1.230000 -0.352032
1.240000 -0.364678
1.250000 -0.377598
1.260000 -0.390752
1.270000 -0.404097
1.280000 -0.417596
1.290000 -0.431216
1.300000 -0.444931
1.310000 -0.458723
1.320000 -0.472583
1.330000 -0.486506
1.340000 -0.500496
1.350000 -0.514555
1.360000 -0.528687
1.370000 -0.542891
1.380000 -0.557161
1.390000 -0.571483
1.400000 -0.585835
1.410000 -0.600187
1.420000 -0.614502
1.430000 -0.628738
1.440000 -0.642853
1.450000 -0.656803
1.460000 -0.670550
1.470000 -0.684060
1.480000 -0.697310
1.490000 -0.710283
1.500000 -0.722971
1.510000 -0.735375
1.520000 -0.747501
1.530000 -0.759357
1.540000 -0.770951
1.550000 -0.782289
1.560000 -0.793371
1.570000 -0.804191
1.580000 -0.814734
1.590000 -0.824979
1.600000 -0.834896
1.610000 -0.844453
1.620000 -0.853614
1.630000 -0.862346
1.640000 -0.870618
1.650000 -0.878406
1.660000 -0.885694
1.670000 -0.892475
1.680000 -0.898749
1.690000 -0.904525
1.700000 -0.909815
1.710000 -0.914637
1.720000 -0.919005
1.730000 -0.922933
1.740000 -0.926427
1.750000 -0.929487
1.760000 -0.932105
1.770000 -0.934264
1.780000 -0.935940
1.790000 -0.937105
1.800000 -0.937729
1.810000 -0.937780
1.820000 -0.937232
1.830000 -0.936063
1.840000 -0.934259
1.850000 -0.931815
1.860000 -0.928733
1.870000 -0.925022
1.880000 -0.920696
1.890000 -0.915773
1.900000 -0.910267
1.910000 -0.904193
1.920000 -0.897557
1.930000 -0.890358
1.940000 -0.882588
1.950000 -0.874232
1.960000 -0.865265
1.970000 -0.855660
1.980000 -0.845387
1.990000 -0.834416
2.000000 -0.822722
2.010000 -0.810286
2.020000 -0.797097
2.030000 -0.783152
2.040000 -0.768458
2.050000 -0.753028
2.060000 -0.736883
2.070000 -0.720046
2.080000 -0.702539
2.090000 -0.684384
2.100000 -0.665597
2.110000 -0.646189
2.120000 -0.626162
2.130000 -0.605513
2.140000 -0.584231
2.150000 -0.562305
2.160000 -0.539719
2.170000 -0.516464
2.180000 -0.492531
2.190000 -0.467922
2.200000 -0.442646
2.210000 -0.416723
2.220000 -0.390183
2.230000 -0.363063
2.240000 -0.335410
2.250000 -0.307271
2.260000 -0.278697
2.270000 -0.249736
2.280000 -0.220433
2.290000 -0.190827
2.300000 -0.160949
2.310000 -0.130825
2.320000 -0.100476
2.330000 -0.069919
2.340000 -0.039171
2.350000 -0.008248
2.360000 0.022824
2.370000 0.054016
2.380000 0.085289
2.390000 0.116595
2.400000 0.147876
2.410000 0.179067
2.420000 0.210098
2.430000 0.240896
2.440000 0.271387
2.450000 0.301501
2.460000 0.331174
2.470000 0.360348
2.480000 0.388977
2.490000 0.417018
2.500000 0.444441
2.510000 0.471215
2.520000 0.497318
2.530000 0.522725
2.540000 0.547408
2.550000 0.571337
2.560000 0.594472
2.570000 0.616770
2.580000 0.638179
2.590000 0.658642
2.600000 0.678102
2.610000 0.696498
2.620000 0.713774
2.630000 0.729880
2.640000 0.744772
2.650000 0.758419
2.660000 0.770799
2.670000 0.781900
2.680000 0.791721
2.690000 0.800268
2.700000 0.807551
2.710000 0.813583
2.720000 0.818376
2.730000 0.821938
2.740000 0.824274
2.750000 0.825381
2.760000 0.825254
2.770000 0.823881
2.780000 0.821252
2.790000 0.817353
2.800000 0.812176
2.810000 0.805721
2.820000 0.797993
2.830000 0.789009
2.840000 0.778797
2.850000 0.767395
2.860000 0.754849
2.870000 0.741212
2.880000 0.726542
2.890000 0.710897
2.900000 0.694334
2.910000 0.676904
2.920000 0.658653
2.930000 0.639619
2.940000 0.619836
2.950000 0.599328
2.960000 0.578119
2.970000 0.556231
2.980000 0.533685
2.990000 0.510509
3.000000 0.486737
3.010000 0.462410
3.020000 0.437577
3.030000 0.412296
3.040000 0.386630
3.050000 0.360647
3.060000 0.334417
3.070000 0.308007
3.080000 0.281480
3.090000 0.254892
3.100000 0.228291
3.110000 0.201715
3.120000 0.175193
3.130000 0.148745
3.140000 0.122388
3.150000 0.096133
3.160000 0.069993
3.170000 0.043981
3.180000 0.018117
3.190000 -0.007575
3.200000 -0.033064
3.210000 -0.058310
3.220000 -0.083271
3.230000 -0.107902
3.240000 -0.132156
3.250000 -0.155990
3.260000 -0.179367
3.270000 -0.202255
3.280000 -0.224634
3.290000 -0.246493
3.300000 -0.267830
3.310000 -0.288650
3.320000 -0.308965
3.330000 -0.328789
3.340000 -0.348137
3.350000 -0.367020
3.360000 -0.385444
3.370000 -0.403408
3.380000 -0.420905
3.390000 -0.437918
3.400000 -0.454427
3.410000 -0.470406
3.420000 -0.485830
3.430000 -0.500673
3.440000 -0.514915
3.450000 -0.528544
3.460000 -0.541551
3.470000 -0.553941
3.480000 -0.565723
3.490000 -0.576913
3.500000 -0.587533
3.510000 -0.597603
3.520000 -0.607145
3.530000 -0.616174
3.540000 -0.624700
3.550000 -0.632724
3.560000 -0.640237
3.570000 -0.647225
3.580000 -0.653663
3.590000 -0.659525
3.600000 -0.664781
3.610000 -0.669401
3.620000 -0.673361
3.630000 -0.676641
3.640000 -0.679228
3.650000 -0.681120
3.660000 -0.682317
3.670000 -0.682831
3.680000 -0.682673
3.690000 -0.681857
3.700000 -0.680397
3.710000 -0.678299
3.720000 -0.675565
3.730000 -0.672189
3.740000 -0.668157
3.750000 -0.663445
3.760000 -0.658026
3.770000 -0.651867
3.780000 -0.644936
3.790000 -0.637201
3.800000 -0.628635
3.810000 -0.619219
3.820000 -0.608943
3.830000 -0.597804
3.840000 -0.585811
3.850000 -0.572978
3.860000 -0.559324
3.870000 -0.544871
3.880000 -0.529641
3.890000 -0.513653
3.900000 -0.496922
3.910000 -0.479454
3.920000 -0.461251
3.930000 -0.442308
3.940000 -0.422614
3.950000 -0.402157
3.960000 -0.380927
3.970000 -0.358915
3.980000 -0.336120
3.990000 -0.312547
4.000000 -0.288215
4.010000 -0.263148
4.020000 -0.237384
4.030000 -0.210967
4.040000 -0.183947
4.050000 -0.156377
4.060000 -0.128311
4.070000 -0.099800
4.080000 -0.070888
4.090000 -0.041617
4.100000 -0.012019
4.110000 0.017880
4.120000 0.048056
4.130000 0.078489
4.140000 0.109161
4.150000 0.140046
4.160000 0.171118
4.170000 0.202340
4.180000 0.233665
4.190000 0.265041
4.200000 0.296403
4.210000 0.327684
4.220000 0.358809
4.230000 0.389704
4.240000 0.420294
4.250000 0.450512
4.260000 0.480295
4.270000 0.509589
4.280000 0.538349
4.290000 0.566538
4.300000 0.594125
4.310000 0.621085
4.320000 0.647392
4.330000 0.673022
4.340000 0.697946
4.350000 0.722131
4.360000 0.745535
4.370000 0.768111
4.380000 0.789806
4.390000 0.810562
4.400000 0.830319
4.410000 0.849019
4.420000 0.866608
4.430000 0.883038
4.440000 0.898270
4.450000 0.912276
4.460000 0.925038
4.470000 0.936548
4.480000 0.946808
4.490000 0.955823
4.500000 0.963606
4.510000 0.970166
4.520000 0.975512
4.530000 0.979649
4.540000 0.982577
4.550000 0.984290
4.560000 0.984778
4.570000 0.984025
4.580000 0.982018
4.590000 0.978743
4.600000 0.974194
4.610000 0.968368
4.620000 0.961276
4.630000 0.952936
4.640000 0.943380
4.650000 0.932646
4.660000 0.920785
4.670000 0.907850
4.680000 0.893898
4.690000 0.878987
4.700000 0.863170
4.710000 0.846498
4.720000 0.829014
4.730000 0.810753
4.740000 0.791747
4.750000 0.772023
4.760000 0.751604
4.770000 0.730515
4.780000 0.708785
4.790000 0.686448
4.800000 0.663545
4.810000 0.640127
4.820000 0.616253
4.830000 0.591989
4.840000 0.567409
4.850000 0.542589
4.860000 0.517604
4.870000 0.492528
4.880000 0.467431
4.890000 0.442371
4.900000 0.417402
4.910000 0.392565
4.920000 0.367894
4.930000 0.343416
4.940000 0.319154
4.950000 0.295127
4.960000 0.271357
4.970000 0.247867
4.980000 0.224687
4.990000 0.201851
5.000000 0.179402
5.010000 0.157385
5.020000 0.135849
5.030000 0.114846
5.040000 0.094422
5.050000 0.074621
5.060000 0.055479
5.070000 0.037020
5.080000 0.019259
5.090000 0.002199
5.100000 -0.014166
5.110000 -0.029852
5.120000 -0.044879
5.130000 -0.059272
5.140000 -0.073054
5.150000 -0.086249
5.160000 -0.098873
5.170000 -0.110938
5.180000 -0.122451
5.190000 -0.133413
5.200000 -0.143821
5.210000 -0.153675
5.220000 -0.162972
5.230000 -0.171716
5.240000 -0.179920
5.250000 -0.187601
5.260000 -0.194791
5.270000 -0.201527
5.280000 -0.207858
5.290000 -0.213838
5.300000 -0.219524
5.310000 -0.224976
5.320000 -0.230251
5.330000 -0.235399
5.340000 -0.240466
5.350000 -0.245489
5.360000 -0.250494
5.370000 -0.255504
5.380000 -0.260532
5.390000 -0.265588
5.400000 -0.270683
5.410000 -0.275828
5.420000 -0.281038
5.430000 -0.286335
5.440000 -0.291745
5.450000 -0.297304
5.460000 -0.303050
5.470000 -0.309026
5.480000 -0.315276
5.490000 -0.321840
5.500000 -0.328755
5.510000 -0.336047
5.520000 -0.343736
5.530000 -0.351828
5.540000 -0.360319
5.550000 -0.369197
5.560000 -0.378439
5.570000 -0.388018
5.580000 -0.397905
5.590000 -0.408068
5.600000 -0.418482
5.610000 -0.429123
5.620000 -0.439974
5.630000 -0.451023
5.640000 -0.462264
5.650000 -0.473691
5.660000 -0.485299
5.670000 -0.497083
5.680000 -0.509030
5.690000 -0.521120
5.700000 -0.533323
5.710000 -0.545600
5.720000 -0.557903
5.730000 -0.570171
5.740000 -0.582342
5.750000 -0.594345
5.760000 -0.606112
5.770000 -0.617575
5.780000 -0.628671
5.790000 -0.639343
5.800000 -0.649545
5.810000 -0.659234
5.820000 -0.668378
5.830000 -0.676948
5.840000 -0.684919
5.850000 -0.692265
5.860000 -0.698958
5.870000 -0.704965
5.880000 -0.710247
5.890000 -0.714757
5.900000 -0.718443
5.910000 -0.721245
5.920000 -0.723101
5.930000 -0.723948
5.940000 -0.723726
5.950000 -0.722379
5.960000 -0.719860
5.970000 -0.716131
5.980000 -0.711166
5.990000 -0.704948
6.000000 -0.697471
6.010000 -0.688736
6.020000 -0.678750
6.030000 -0.667522
6.040000 -0.655060
6.050000 -0.641371
6.060000 -0.626456
6.070000 -0.610312
6.080000 -0.592931
6.090000 -0.574301
6.100000 -0.554408
6.110000 -0.533241
6.120000 -0.510791
6.130000 -0.487055
6.140000 -0.462041
6.150000 -0.435767
6.160000 -0.408262
6.170000 -0.379567
6.180000 -0.349733
6.190000 -0.318818
6.200000 -0.286886
6.210000 -0.254003
6.220000 -0.220235
6.230000 -0.185643
6.240000 -0.150286
6.250000 -0.114214
6.260000 -0.077473
6.270000 -0.040105
6.280000 -0.002148
6.290000 0.036360
6.300000 0.075378
6.310000 0.114860
6.320000 0.154752
6.330000 0.194993
6.340000 0.235509
6.350000 0.276220
6.360000 0.317038
6.370000 0.357869
6.380000 0.398615
6.390000 0.439181
6.400000 0.479475
6.410000 0.519409
6.420000 0.558905
6.430000 0.597892
6.440000 0.636311
6.450000 0.674105
6.460000 0.711228
6.470000 0.747634
6.480000 0.783279
6.490000 0.818114
6.500000 0.852090
6.510000 0.885148
6.520000 0.917225
6.530000 0.948252
6.540000 0.978153
6.550000 1.006853
6.560000 1.034277
6.570000 1.060351
6.580000 1.085010
6.590000 1.108197
6.600000 1.129867
6.610000 1.149984
6.620000 1.168524
6.630000 1.185475
6.640000 1.200829
6.650000 1.214586
6.660000 1.226747
6.670000 1.237312
6.680000 1.246281
6.690000 1.253647
6.700000 1.259399
6.710000 1.263520
6.720000 1.265992
6.730000 1.266794
6.740000 1.265909
6.750000 1.263322
6.760000 1.259025
6.770000 1.253022
6.780000 1.245325
6.790000 1.235958
6.800000 1.224957
6.810000 1.212367
6.820000 1.198240
6.830000 1.182631
6.840000 1.165597
6.850000 1.147195
6.860000 1.127477
6.870000 1.106487
6.880000 1.084266
6.890000 1.060847
6.900000 1.036259
6.910000 1.010528
6.920000 0.983679
6.930000 0.955742
6.940000 0.926748
6.950000 0.896739
6.960000 0.865765
6.970000 0.833883
6.980000 0.801161
6.990000 0.767673
7.000000 0.733497
7.010000 0.698714
7.020000 0.663401
7.030000 0.627635
7.040000 0.591483
7.050000 0.555004
7.060000 0.518252
7.070000 0.481267
7.080000 0.444087
7.090000 0.406743
7.100000 0.369263
7.110000 0.331678
7.120000 0.294021
7.130000 0.256329
7.140000 0.218650
7.150000 0.181036
7.160000 0.143546
7.170000 0.106246
7.180000 0.069204
7.190000 0.032489
7.200000 -0.003834
7.210000 -0.039705
7.220000 -0.075069
7.230000 -0.109884
7.240000 -0.144116
7.250000 -0.177738
7.260000 -0.210733
7.270000 -0.243087
7.280000 -0.274791
7.290000 -0.305834
7.300000 -0.336200
7.310000 -0.365871
7.320000 -0.394819
7.330000 -0.423011
7.340000 -0.450404
7.350000 -0.476954
7.360000 -0.502611
7.370000 -0.527326
7.380000 -0.551052
7.390000 -0.573748
7.400000 -0.595379
7.410000 -0.615923
7.420000 -0.635362
7.430000 -0.653691
7.440000 -0.670911
7.450000 -0.687026
7.460000 -0.702047
7.470000 -0.715979
7.480000 -0.728826
7.490000 -0.740589
7.500000 -0.751258
7.510000 -0.760818
7.520000 -0.769248
7.530000 -0.776522
7.540000 -0.782611
7.550000 -0.787487
7.560000 -0.791124
7.570000 -0.793505
7.580000 -0.794619
7.590000 -0.794466
7.600000 -0.793054
7.610000 -0.790404
7.620000 -0.786541
7.630000 -0.781499
7.640000 -0.775313
7.650000 -0.768019
7.660000 -0.759649
7.670000 -0.750231
7.680000 -0.739787
7.690000 -0.728333
7.700000 -0.715878
7.710000 -0.702430
7.720000 -0.687991
7.730000 -0.672567
7.740000 -0.656168
7.750000 -0.638809
7.760000 -0.620515
7.770000 -0.601320
7.780000 -0.581269
7.790000 -0.560415
7.800000 -0.538821
7.810000 -0.516552
7.820000 -0.493677
7.830000 -0.470265
7.840000 -0.446380
7.850000 -0.422080
7.860000 -0.397416
7.870000 -0.372434
7.880000 -0.347169
7.890000 -0.321654
7.900000 -0.295917
7.910000 -0.269987
7.920000 -0.243893
7.930000 -0.217672
7.940000 -0.191365
7.950000 -0.165022
7.960000 -0.138701
7.970000 -0.112468
7.980000 -0.086391
7.990000 -0.060543
8.000000 -0.034997
8.010000 -0.009822
8.020000 0.014921
8.030000 0.039178
8.040000 0.062903
8.050000 0.086063
8.060000 0.108632
8.070000 0.130593
8.080000 0.151934
8.090000 0.172646
8.100000 0.192719
8.110000 0.212139
8.120000 0.230891
8.130000 0.248950
8.140000 0.266287
8.150000 0.282868
8.160000 0.298654
8.170000 0.313607
8.180000 0.327689
8.190000 0.340869
8.200000 0.353120
8.210000 0.364428
8.220000 0.374786
8.230000 0.384200
8.240000 0.392684
8.250000 0.400261
8.260000 0.406959
8.270000 0.412806
8.280000 0.417833
8.290000 0.422065
8.300000 0.425522
8.310000 0.428216
8.320000 0.430156
8.330000 0.431341
8.340000 0.431768
8.350000 0.431429
8.360000 0.430320
8.370000 0.428438
8.380000 0.425788
8.390000 0.422381
8.400000 0.418239
8.410000 0.413390
8.420000 0.407872
8.430000 0.401729
8.440000 0.395006
8.450000 0.387751
8.460000 0.380008
8.470000 0.371816
8.480000 0.363207
8.490000 0.354206
8.500000 0.344826
8.510000 0.335075
8.520000 0.324956
8.530000 0.314467
8.540000 0.303607
8.550000 0.292375
8.560000 0.280779
8.570000 0.268831
8.580000 0.256552
8.590000 0.243971
8.600000 0.231124
8.610000 0.218051
8.620000 0.204798
8.630000 0.191407
8.640000 0.177919
8.650000 0.164369
8.660000 0.150785
8.670000 0.137185
8.680000 0.123582
8.690000 0.109977
8.700000 0.096370
8.710000 0.082755
8.720000 0.069127
8.730000 0.055484
8.740000 0.041830
8.750000 0.028176
8.760000 0.014540
8.770000 0.000951
8.780000 -0.012556
8.790000 -0.025942
8.800000 -0.039164
8.810000 -0.052178
8.820000 -0.064945
8.830000 -0.077431
8.840000 -0.089608
8.850000 -0.101459
8.860000 -0.112973
8.870000 -0.124148
8.880000 -0.134988
8.890000 -0.145498
8.900000 -0.155685
8.910000 -0.165551
8.920000 -0.175097
8.930000 -0.184313
8.940000 -0.193183
8.950000 -0.201684
8.960000 -0.209785
8.970000 -0.217454
8.980000 -0.224653
8.990000 -0.231348
9.000000 -0.237509
9.010000 -0.243113
9.020000 -0.248144
9.030000 -0.252598
9.040000 -0.256480
9.050000 -0.259802
9.060000 -0.262585
9.070000 -0.264853
9.080000 -0.266630
9.090000 -0.267940
9.100000 -0.268804
9.110000 -0.269234
9.120000 -0.269238
9.130000 -0.268816
9.140000 -0.267964
9.150000 -0.266673
9.160000 -0.264935
9.170000 -0.262742
9.180000 -0.260094
9.190000 -0.256994
9.200000 -0.253460
9.210000 -0.249514
9.220000 -0.245191
9.230000 -0.240533
9.240000 -0.235591
9.250000 -0.230415
9.260000 -0.225059
9.270000 -0.219574
9.280000 -0.214004
9.290000 -0.208389
9.300000 -0.202760
9.310000 -0.197139
9.320000 -0.191543
9.330000 -0.185983
9.340000 -0.180471
9.350000 -0.175014
9.360000 -0.169628
9.370000 -0.164331
9.380000 -0.159149
9.390000 -0.154117
9.400000 -0.149276
9.410000 -0.144674
9.420000 -0.140362
9.430000 -0.136394
9.440000 -0.132819
9.450000 -0.129684
9.460000 -0.127027
9.470000 -0.124878
9.480000 -0.123255
9.490000 -0.122168
9.500000 -0.121618
9.510000 -0.121598
9.520000 -0.122097
9.530000 -0.123106
9.540000 -0.124613
9.550000 -0.126613
9.560000 -0.129106
9.570000 -0.132097
9.580000 -0.135598
9.590000 -0.139625
9.600000 -0.144198
9.610000 -0.149335
9.620000 -0.155053
9.630000 -0.161359
9.640000 -0.168257
9.650000 -0.175738
9.660000 -0.183783
9.670000 -0.192362
9.680000 -0.201438
9.690000 -0.210966
9.700000 -0.220899
9.710000 -0.231186
9.720000 -0.241781
9.730000 -0.252641
9.740000 -0.263730
9.750000 -0.275018
9.760000 -0.286483
9.770000 -0.298108
9.780000 -0.309880
9.790000 -0.321784
9.800000 -0.333806
9.810000 -0.345926
9.820000 -0.358117
9.830000 -0.370344
9.840000 -0.382562
9.850000 -0.394719
9.860000 -0.406754
9.870000 -0.418603
9.880000 -0.430199
9.890000 -0.441476
9.900000 -0.452372
9.910000 -0.462834
9.920000 -0.472814
9.930000 -0.482274
9.940000 -0.491185
9.950000 -0.499525
9.960000 -0.507278
9.970000 -0.514430
9.980000 -0.520966
9.990000 -0.526869
10.000000 -0.532117
10.010000 -0.536682
10.020000 -0.540528
10.030000 -0.543611
10.040000 -0.545886
10.050000 -0.547302
10.060000 -0.547810
10.070000 -0.547364
10.080000 -0.545923
10.090000 -0.543457
10.100000 -0.539943
10.110000 -0.535372
10.120000 -0.529743
10.130000 -0.523066
10.140000 -0.515356
10.150000 -0.506633
10.160000 -0.496920
10.170000 -0.486234
10.180000 -0.474594
10.190000 -0.462009
10.200000 -0.448485
10.210000 -0.434022
10.220000 -0.418617
10.230000 -0.402264
10.240000 -0.384961
10.250000 -0.366707
10.260000 -0.347513
10.270000 -0.327393
10.280000 -0.306378
10.290000 -0.284506
10.300000 -0.261828
10.310000 -0.238402
10.320000 -0.214293
10.330000 -0.189573
10.340000 -0.164310
10.350000 -0.138573
10.360000 -0.112426
10.370000 -0.085926
10.380000 -0.059123
10.390000 -0.032062
10.400000 -0.004782
10.410000 0.022679
10.420000 0.050284
10.430000 0.077995
10.440000 0.105767
10.450000 0.133548
10.460000 0.161277
10.470000 0.188886
10.480000 0.216296
10.490000 0.243425
10.500000 0.270186
10.510000 0.296491
10.520000 0.322255
10.530000 0.347399
10.540000 0.371851
10.550000 0.395550
10.560000 0.418442
10.570000 0.440487
10.580000 0.461650
10.590000 0.481904
10.600000 0.501225
10.610000 0.519588
10.620000 0.536969
10.630000 0.553338
10.640000 0.568662
10.650000 0.582899
10.660000 0.596007
10.670000 0.607938
